2969_RGR1_D06_003 @Phi=2.0
3.008356 445
3.025067 404
3.041778 422
3.058489 394
3.075201 454
3.091912 385
3.108623 392
3.125335 406
3.142046 374
3.158757 403
3.175468 379
3.19218  424
3.208891 393
3.225602 395
3.242313 369
3.259025 414
3.275736 422
3.292447 394
3.309159 401
3.32587  345
3.342581 370
3.359292 408
3.376004 367
3.392715 399
3.409426 383
3.426137 387
3.442849 363
3.45956  401
3.476271 397
3.492982 377
3.509694 367
3.526405 352
3.543116 367
3.559828 387
3.576539 387
3.59325  371
3.609961 360
3.626673 390
3.643384 383
3.660095 359
3.676806 379
3.693518 393
3.710229 329
3.72694  368
3.743651 337
3.760363 360
3.777074 318
3.793785 370
3.810497 345
3.827208 356
3.843919 347
3.86063  312
3.877342 344
3.894053 334
3.910764 326
3.927475 320
3.944187 336
3.960898 371
3.977609 353
3.99432  370
4.011032 382
4.027743 355
4.044454 330
4.061165 318
4.077877 354
4.094588 326
4.1113   343
4.128011 315
4.144722 281
4.161433 349
4.178144 330
4.194856 313
4.211567 289
4.228278 306
4.244989 322
4.261701 316
4.278412 297
4.295123 352
4.311834 322
4.328546 302
4.345257 332
4.361969 353
4.37868  321
4.395391 322
4.412102 321
4.428813 365
4.445525 314
4.462236 320
4.478947 330
4.495658 347
4.51237  323
4.529081 334
4.545792 315
4.562504 339
4.579215 290
4.595926 281
4.612638 340
4.629349 306
4.64606  325
4.662771 310
4.679482 325
4.696194 331
4.712905 319
4.729616 308
4.746327 358
4.763039 316
4.77975  277
4.796462 309
4.813173 325
4.829884 279
4.846595 315
4.863307 296
4.880018 282
4.896729 280
4.91344  286
4.930151 322
4.946863 307
4.963574 324
4.980285 291
4.996996 306
5.013708 316
5.030419 339
5.047131 287
5.063842 281
5.080553 291
5.097264 272
5.113976 291
5.130687 291
5.147398 329
5.164109 280
5.18082  303
5.197532 342
5.214243 304
5.230954 297
5.247665 288
5.264377 278
5.281088 306
5.2978   289
5.314511 272
5.331222 299
5.347933 274
5.364645 266
5.381356 270
5.398067 286
5.414778 304
5.431489 286
5.448201 289
5.464912 277
5.481623 268
5.498334 266
5.515046 259
5.531757 289
5.548469 289
5.56518  297
5.581891 289
5.598602 274
5.615314 279
5.632025 293
5.648736 278
5.665447 294
5.682158 291
5.69887  287
5.715581 256
5.732292 303
5.749004 251
5.765715 289
5.782426 282
5.799138 275
5.815849 267
5.83256  275
5.849271 268
5.865983 270
5.882694 267
5.899405 260
5.916116 242
5.932827 284
5.949539 282
5.96625  270
5.982962 268
5.999673 280
6.016384 261
6.033095 278
6.049807 282
6.066518 273
6.083229 246
6.09994  289
6.116652 277
6.133363 259
6.150074 288
6.166785 289
6.183496 258
6.200208 255
6.216919 260
6.233631 257
6.250342 254
6.267053 255
6.283764 261
6.300476 246
6.317187 239
6.333898 252
6.350609 250
6.367321 254
6.384032 249
6.400743 255
6.417454 234
6.434165 252
6.450877 281
6.467588 241
6.4843   225
6.501011 250
6.517722 267
6.534433 271
6.551145 259
6.567856 251
6.584567 221
6.601278 254
6.61799  260
6.634701 265
6.651412 245
6.668123 227
6.684834 288
6.701546 255
6.718257 228
6.734969 233
6.75168  251
6.768391 252
6.785102 235
6.801814 271
6.818525 250
6.835236 241
6.851947 260
6.868659 240
6.88537  247
6.902081 262
6.918792 233
6.935504 235
6.952215 267
6.968926 264
6.985638 233
7.002349 225
7.01906  248
7.035771 229
7.052483 234
7.069194 242
7.085905 242
7.102616 259
7.119328 226
7.136039 241
7.15275  221
7.169462 231
7.186173 250
7.202884 239
7.219595 229
7.236307 246
7.253018 227
7.269729 258
7.28644  213
7.303152 249
7.319863 221
7.336574 221
7.353285 262
7.369997 248
7.386708 234
7.403419 202
7.420131 224
7.436842 236
7.453553 223
7.470264 231
7.486976 212
7.503687 242
7.520398 233
7.537109 223
7.553821 232
7.570532 183
7.587243 215
7.603954 210
7.620666 195
7.637377 254
7.654088 218
7.6708   210
7.687511 232
7.704222 247
7.720933 216
7.737645 225
7.754356 219
7.771067 238
7.787778 208
7.80449  221
7.821201 233
7.837912 218
7.854623 214
7.871335 211
7.888046 232
7.904757 217
7.921469 217
7.93818  224
7.954891 229
7.971602 201
7.988314 216
8.005025 202
8.021736 202
8.038447 223
8.055159 216
8.07187  226
8.088581 223
8.105292 242
8.122004 189
8.138715 225
8.155426 195
8.172137 209
8.188848 230
8.20556  187
8.222271 194
8.238983 179
8.255694 211
8.272406 201
8.289117 192
8.305828 185
8.322539 213
8.339251 219
8.355962 225
8.372673 208
8.389384 198
8.406096 215
8.422807 230
8.439518 243
8.456229 194
8.47294  226
8.489652 181
8.506363 191
8.523074 180
8.539785 194
8.556497 199
8.573208 186
8.589919 195
8.60663  197
8.623342 180
8.640053 199
8.656764 184
8.673475 202
8.690187 214
8.706898 187
8.72361  205
8.740321 215
8.757032 229
8.773744 182
8.790455 184
8.807166 196
8.823877 217
8.840589 202
8.8573   184
8.874011 188
8.890722 203
8.907434 233
8.924145 194
8.940856 239
8.957567 210
8.974278 209
8.99099  204
9.007701 221
9.024412 200
9.041123 207
9.057835 234
9.074546 218
9.091257 207
9.107968 193
9.12468  226
9.141391 217
9.158102 196
9.174813 193
9.191525 230
9.208237 202
9.224948 231
9.241659 207
9.25837  181
9.275082 198
9.291793 217
9.308504 175
9.325215 209
9.341927 213
9.358638 188
9.375349 215
9.39206  187
9.408772 213
9.425483 200
9.442194 204
9.458905 188
9.475616 173
9.492328 203
9.509039 170
9.52575  207
9.542461 196
9.559173 161
9.575884 165
9.592595 187
9.609306 185
9.626018 161
9.642729 176
9.65944  180
9.676152 177
9.692863 194
9.709575 175
9.726286 183
9.742997 167
9.759708 159
9.77642  183
9.793131 161
9.809842 154
9.826553 169
9.843265 170
9.859976 187
9.876687 169
9.893398 182
9.91011  171
9.926821 178
9.943532 175
9.960243 159
9.976954 149
9.993666 170
10.01037 165
10.02708 175
10.04379 151
10.06051 168
10.07722 145
10.09393 177
10.11064 161
10.12735 176
10.14406 167
10.16077 165
10.17749 181
10.19420 177
10.21091 164
10.22762 162
10.24433 179
10.26104 170
10.27775 152
10.29446 183
10.31118 177
10.32789 170
10.34460 168
10.36131 175
10.37802 155
10.39473 200
10.41144 169
10.42815 147
10.44487 162
10.46158 141
10.47829 181
10.49500 141
10.51171 155
10.52842 164
10.54513 171
10.56184 150
10.57856 166
10.59527 136
10.61198 145
10.62869 160
10.64540 183
10.66211 151
10.67882 177
10.69553 127
10.71225 136
10.72896 169
10.74567 154
10.76238 172
10.77909 165
10.79580 165
10.81251 146
10.82922 151
10.84594 157
10.86265 153
10.87936 165
10.89607 173
10.91278 159
10.92949 171
10.94620 167
10.96291 168
10.97963 154
10.99634 150
11.01305 144
11.02976 161
11.04647 144
11.06318 134
11.07989 156
11.09661 149
11.11332 179
11.13003 165
11.14674 146
11.16345 133
11.18016 156
11.19687 148
11.21358 133
11.2303  147
11.24701 143
11.26372 143
11.28043 134
11.29714 159
11.31385 149
11.33056 145
11.34727 154
11.36399 139
11.38070 117
11.39741 141
11.41412 147
11.43083 134
11.44754 163
11.46425 164
11.48096 141
11.49768 140
11.51439 123
11.53110 135
11.54781 139
11.56452 135
11.58123 122
11.59794 124
11.61465 123
11.63137 139
11.64808 136
11.66479 141
11.68150 134
11.69821 117
11.71492 144
11.73163 162
11.74834 135
11.76506 136
11.78177 157
11.79848 128
11.81519 145
11.83190 154
11.84861 146
11.86532 137
11.88203 137
11.89875 143
11.91546 131
11.93217 153
11.94888 130
11.96559 131
11.98230 148
11.99901 153
12.01572 139
12.03244 155
12.04915 140
12.06586 136
12.08257 134
12.09928 149
12.11599 134
12.13270 128
12.14942 152
12.16613 168
12.18284 133
12.19955 130
12.21626 136
12.23297 132
12.24968 171
12.26639 157
12.28311 138
12.29982 131
12.31653 145
12.33324 137
12.34995 118
12.36666 135
12.38337 132
12.40008 124
12.4168  132
12.43351 124
12.45022 139
12.46693 141
12.48364 146
12.50035 140
12.51706 128
12.53377 138
12.55049 137
12.56720 112
12.58391 121
12.60062 149
12.61733 156
12.63404 115
12.65075 154
12.66746 131
12.68418 129
12.70089 118
12.71760 124
12.73431 136
12.75102 161
12.76773 130
12.78444 136
12.80115 123
12.81787 134
12.83458 141
12.85129 150
12.86800 123
12.88471 139
12.90142 122
12.91813 112
12.93484 121
12.95156 134
12.96827 136
12.98498 137
13.00169 123
13.01840 108
13.03511 114
13.05182 124
13.06854 125
13.08525 120
13.10196 108
13.11867 129
13.13538 112
13.15209 121
13.16880 130
13.18551 122
13.20222 117
13.21894 98
13.23565 118
13.25236 123
13.26907 116
13.28578 118
13.30249 116
13.31920 132
13.33591 108
13.35263 115
13.36934 115
13.38605 134
13.40276 113
13.41947 132
13.43618 98
13.45289 131
13.46961 143
13.48632 112
13.50303 109
13.51974 122
13.53645 122
13.55316 129
13.56987 130
13.58658 120
13.6033  123
13.62001 107
13.63672 110
13.65343 109
13.67014 119
13.68685 116
13.70356 114
13.72027 99
13.73699 112
13.75370 108
13.77041 131
13.78712 113
13.80383 91
13.82054 114
13.83725 91
13.85396 120
13.87068 115
13.88739 121
13.90410 98
13.92081 94
13.93752 114
13.95423 106
13.97094 100
13.98765 97
14.00437 109
14.02108 102
14.03779 116
14.05450 101
14.07121 120
14.08792 137
14.10463 115
14.12134 115
14.13806 115
14.15477 98
14.17148 94
14.18819 94
14.20490 118
14.22161 109
14.23832 119
14.25503 116
14.27175 109
14.28846 113
14.30517 105
14.32188 94
14.33859 103
14.35530 102
14.37201 113
14.38872 96
14.40544 103
14.42215 99
14.43886 104
14.45557 105
14.47228 101
14.48899 131
14.50570 129
14.52242 105
14.53913 97
14.55584 89
14.57255 104
14.58926 99
14.60597 110
14.62268 106
14.63939 109
14.65611 102
14.67282 80
14.68953 96
14.70624 117
14.72295 114
14.73966 105
14.75637 92
14.77308 97
14.7898  69
14.80651 78
14.82322 117
14.83993 104
14.85664 120
14.87335 83
14.89006 119
14.90677 103
14.92349 101
14.94020 108
14.95691 102
14.97362 98
14.99033 100
15.00704 82
15.02375 100
15.04046 102
15.05718 86
15.07389 80
15.09060 97
15.10731 91
15.12402 104
15.14073 97
15.15744 97
15.17415 108
15.19087 98
15.20758 110
15.22429 101
15.24100 97
15.25771 108
15.27442 110
15.29113 89
15.30784 104
15.32456 99
15.34127 104
15.35798 106
15.37469 121
15.39140 91
15.40811 77
15.42482 104
15.44154 90
15.45825 112
15.47496 120
15.49167 110
15.50838 78
15.52509 90
15.54180 110
15.55851 101
15.57523 108
15.59194 93
15.60865 116
15.62536 101
15.64207 104
15.65878 85
15.67549 93
15.69220 92
15.70892 99
15.72563 87
15.74234 93
15.75905 89
15.77576 81
15.79247 90
15.80918 89
15.82589 92
15.84260 105
15.85932 113
15.87603 94
15.89274 107
15.90945 86
15.92616 96
15.94287 107
15.95958 105
15.9763  99
15.99301 100
16.00972 106
16.02643 102
16.04314 92
16.05985 88
16.07656 93
16.09327 113
16.10999 92
16.12670 89
16.14341 81
16.16012 106
16.17683 89
16.19354 96
16.21025 96
16.22696 110
16.24368 76
16.26039 91
16.27710 93
16.29381 72
16.31052 98
16.32723 102
16.34394 100
16.36065 102
16.37737 92
16.39408 107
16.41079 108
16.42750 108
16.44421 100
16.46092 106
16.47763 115
16.49434 115
16.51106 86
16.52777 94
16.54448 97
16.56119 98
16.57790 69
16.59461 74
16.61132 109
16.62804 90
16.64475 91
16.66146 87
16.67817 106
16.69488 106
16.71159 91
16.72830 104
16.74501 81
16.76173 102
16.77844 90
16.79515 96
16.81186 100
16.82857 101
16.84528 90
16.86199 97
16.87870 87
16.89542 106
16.91213 87
16.92884 96
16.94555 109
16.96226 110
16.97897 104
16.99568 102
17.01239 87
17.02911 87
17.04582 77
17.06253 83
17.07924 85
17.09595 91
17.11266 84
17.12937 90
17.14609 88
17.1628  107
17.17951 91
17.19622 90
17.21293 109
17.22964 99
17.24635 87
17.26306 103
17.27977 108
17.29649 100
17.31320 98
17.32991 73
17.34662 96
17.36333 102
17.38004 88
17.39675 84
17.41346 85
17.43018 82
17.44689 97
17.46360 91
17.48031 74
17.49702 85
17.51373 100
17.53044 89
17.54715 74
17.56387 92
17.58058 109
17.59729 96
17.61400 92
17.63071 98
17.64742 106
17.66413 87
17.68084 89
17.69756 82
17.71427 71
17.73098 82
17.74769 94
17.76440 93
17.78111 99
17.79782 97
17.81453 91
17.83125 107
17.84796 101
17.86467 102
17.88138 103
17.89809 107
17.91480 88
17.93151 99
17.94822 94
17.96494 90
17.98165 103
17.99836 89
18.01507 93
18.03178 87
18.04849 106
18.06520 110
18.08192 94
18.09863 105
18.11534 115
18.13205 103
18.14876 109
18.16547 106
18.18218 107
18.19889 97
18.21561 100
18.23232 108
18.24903 115
18.26574 96
18.28245 123
18.29916 114
18.31587 102
18.33258 99
18.3493  112
18.36601 128
18.38272 130
18.39943 119
18.41614 125
18.43285 113
18.44956 88
18.46628 112
18.48299 101
18.49970 118
18.51641 114
18.53312 135
18.54983 131
18.56654 108
18.58325 130
18.59997 90
18.61668 118
18.63339 97
18.65010 116
18.66681 100
18.68352 94
18.70023 68
18.71694 107
18.73366 92
18.75037 91
18.76708 92
18.78379 96
18.80050 97
18.81721 102
18.83392 110
18.85063 108
18.86735 96
18.88406 88
18.90077 88
18.91748 94
18.93419 120
18.95090 97
18.96761 106
18.98432 96
19.00104 77
19.01775 96
19.03446 96
19.05117 93
19.06788 105
19.08459 103
19.10130 105
19.11801 97
19.13472 99
19.15144 73
19.16815 93
19.18486 100
19.20157 96
19.21828 70
19.23499 82
19.25170 74
19.26841 74
19.28513 76
19.30184 73
19.31855 81
19.33526 97
19.35197 98
19.36868 89
19.38539 96
19.40210 102
19.41882 87
19.43553 77
19.45224 82
19.46895 80
19.48566 85
19.50237 61
19.51908 68
19.53580 77
19.55251 82
19.56922 82
19.58593 81
19.60264 81
19.61935 76
19.63606 80
19.65277 78
19.66949 96
19.68620 64
19.70291 81
19.71962 96
19.73633 84
19.75304 64
19.76975 85
19.78646 89
19.80318 71
19.81989 80
19.83660 89
19.85331 70
19.87002 80
19.88673 74
19.90344 87
19.92016 92
19.93687 76
19.95358 83
19.97029 70
19.98700 81
20.00371 85
20.02042 71
20.03713 77
20.05385 84
20.07056 61
20.08727 83
20.10398 81
20.12069 75
20.13740 89
20.15411 73
20.17082 76
20.18754 87
20.20425 93
20.22096 73
20.23767 87
20.25438 64
20.27109 91
20.28780 59
20.30451 71
20.32123 88
20.33794 94
20.35465 82
20.37136 72
20.38807 74
20.40478 82
20.42149 78
20.43821 76
20.45492 81
20.47163 73
20.48834 74
20.50505 80
20.52176 68
20.53847 80
20.55518 82
20.57189 77
20.58861 72
20.60532 69
20.62203 88
20.63874 77
20.65545 66
20.67216 87
20.68887 89
20.70558 68
20.7223  81
20.73901 97
20.75572 77
20.77243 56
20.78914 77
20.80585 69
20.82256 80
20.83927 73
20.85599 71
20.87270 66
20.88941 70
20.90612 84
20.92283 76
20.93954 94
20.95625 82
20.97296 88
20.98968 72
21.00639 87
21.02310 66
21.03981 76
21.05652 70
21.07323 78
21.08994 73
21.10665 89
21.12337 99
21.14008 56
21.15679 87
21.17350 97
21.19021 62
21.20692 81
21.22363 70
21.24034 67
21.25706 62
21.27377 71
21.29048 80
21.30719 74
21.32390 65
21.34061 72
21.35732 75
21.37404 64
21.39075 77
21.40746 96
21.42417 83
21.44088 66
21.45759 74
21.47430 61
21.49101 67
21.50773 71
21.52444 90
21.54115 85
21.55786 76
21.57457 75
21.59128 83
21.60799 72
21.62470 70
21.64142 73
21.65813 51
21.67484 68
21.69155 64
21.70826 67
21.72497 74
21.74168 66
21.75839 65
21.77511 72
21.79182 69
21.80853 67
21.82524 75
21.84195 84
21.85866 71
21.87537 73
21.89209 74
21.9088  76
21.92551 92
21.94222 73
21.95893 77
21.97564 67
21.99235 84
22.00906 84
22.02578 76
22.04249 84
22.05920 73
22.07591 66
22.09262 83
22.10933 61
22.12604 53
22.14275 67
22.15947 57
22.17618 61
22.19289 58
22.20960 70
22.22631 74
22.24302 68
22.25973 55
22.27644 60
22.29315 66
22.30987 58
22.32658 61
22.34329 51
22.36000 70
22.37671 56
22.39342 62
22.41013 74
22.42684 76
22.44356 61
22.46027 57
22.47698 70
22.49369 71
22.51040 64
22.52711 67
22.54382 60
22.56053 68
22.57725 66
22.59396 57
22.61067 65
22.62738 64
22.64409 76
22.66080 69
22.67751 70
22.69422 70
22.71094 57
22.72765 52
22.74436 61
22.76107 69
22.77778 55
22.79449 54
22.81120 61
22.82792 64
22.84463 74
22.86134 58
22.87805 78
22.89476 69
22.91147 82
22.92818 74
22.94489 100
22.96161 78
22.97832 74
22.99503 73
23.01174 75
23.02845 83
23.04516 87
23.06187 68
23.07858 96
23.09530 83
23.11201 59
23.12872 80
23.14543 71
23.16214 73
23.17885 62
23.19556 60
23.21228 75
23.22899 55
23.24570 67
23.26241 64
23.27912 53
23.29583 57
23.31254 82
23.32925 56
23.34597 66
23.36268 71
23.37939 65
23.39610 68
23.41281 50
23.42952 72
23.44623 57
23.46294 75
23.47966 58
23.49637 67
23.51308 62
23.52979 51
23.54650 51
23.56321 56
23.57992 58
23.59663 53
23.61335 45
23.63006 57
23.64677 65
23.66348 81
23.68019 62
23.69690 52
23.71361 59
23.73033 60
23.74704 58
23.76375 61
23.78046 73
23.79717 55
23.81388 59
23.83059 58
23.84730 44
23.86401 57
23.88073 58
23.89744 67
23.91415 58
23.93086 65
23.94757 66
23.96428 49
23.98099 53
23.99770 61
24.01442 43
24.03113 66
24.04784 60
24.06455 54
24.08126 68
24.09797 59
24.11468 48
24.13139 67
24.14810 42
24.16482 60
24.18153 51
24.19824 60
24.21495 65
24.23166 66
24.24837 36
24.26508 62
24.28180 61
24.29851 51
24.31522 54
24.33193 58
24.34864 54
24.36535 58
24.38206 51
24.39877 60
24.41549 53
24.43220 53
24.44891 72
24.46562 65
24.48233 45
24.49904 72
24.51575 62
24.53246 76
24.54918 65
24.56589 51
24.58260 57
24.59931 56
24.61602 56
24.63273 61
24.64944 53
24.66616 60
24.68287 55
24.69958 56
24.71629 67
24.73300 57
24.74971 42
24.76642 55
24.78313 61
24.79985 55
24.81656 74
24.83327 61
24.84998 44
24.86669 51
24.88340 64
24.90011 62
24.91682 54
24.93354 58
24.95025 66
24.96696 64
24.98367 58
25.00038 54
25.01709 51
25.03380 57
25.05051 52
25.06723 75
25.08394 61
25.10065 58
25.11736 71
25.13407 58
25.15078 56
25.16749 67
25.18421 62
25.20092 73
25.21763 72
25.23434 68
25.25105 75
25.26776 65
25.28447 62
25.30118 61
25.3179  56
25.33461 60
25.35132 62
25.36803 58
25.38474 73
25.40145 77
25.41816 58
25.43487 77
25.45159 67
25.4683  74
25.48501 81
25.50172 76
25.51843 58
25.53514 56
25.55185 85
25.56856 89
25.58527 81
25.60199 83
25.61870 102
25.63541 122
25.65212 157
25.66883 146
25.68554 161
25.70225 163
25.71896 154
25.73568 144
25.75239 153
25.76910 144
25.78581 133
25.80252 122
25.81923 91
25.83594 104
25.85265 85
25.86937 100
25.88608 82
25.90279 77
25.91950 83
25.93621 90
25.95292 69
25.96963 65
25.98634 64
26.00306 68
26.01977 69
26.03648 68
26.05319 69
26.06990 65
26.08661 51
26.10332 75
26.12004 62
26.13675 57
26.15346 52
26.17017 64
26.18688 76
26.20359 59
26.22030 81
26.23701 82
26.25373 76
26.27044 66
26.28715 59
26.30386 59
26.32057 54
26.33728 59
26.35399 58
26.37070 67
26.38742 52
26.40413 70
26.42084 59
26.43755 68
26.45426 62
26.47097 70
26.48768 64
26.50439 65
26.52111 60
26.53782 58
26.55453 69
26.57124 62
26.58795 57
26.60466 58
26.62137 55
26.63809 61
26.6548  57
26.67151 59
26.68822 64
26.70493 64
26.72164 58
26.73835 49
26.75506 80
26.77178 57
26.78849 52
26.80520 60
26.82191 58
26.83862 73
26.85533 48
26.87204 67
26.88875 54
26.90547 52
26.92218 49
26.93889 64
26.95560 54
26.97231 65
26.98902 57
27.00573 54
27.02244 62
27.03916 48
27.05587 56
27.07258 57
27.08929 55
27.10600 55
27.12271 59
27.13942 50
27.15613 45
27.17285 68
27.18956 51
27.20627 45
27.22298 70
27.23969 61
27.25640 53
27.27311 44
27.28982 52
27.30654 53
27.32325 60
27.33996 59
27.35667 61
27.37338 54
27.39009 60
27.40680 73
27.42351 50
27.44022 54
27.45694 60
27.47365 55
27.49036 58
27.50707 39
27.52378 56
27.54049 53
27.55720 65
27.57392 56
27.59063 58
27.60734 52
27.62405 46
27.64076 55
27.65747 57
27.67418 64
27.69089 59
27.70761 44
27.72432 70
27.74103 56
27.75774 53
27.77445 60
27.79116 54
27.80787 51
27.82458 60
27.84130 64
27.85801 65
27.87472 62
27.89143 81
27.90814 59
27.92485 58
27.94156 77
27.95827 90
27.97499 87
27.99170 81
28.00841 91
28.02512 78
28.04183 83
28.05854 69
28.07525 77
28.09197 75
28.10868 98
28.12539 67
28.14210 66
28.15881 70
28.17552 70
28.19223 77
28.20894 65
28.22566 65
28.24237 67
28.25908 58
28.27579 53
28.29250 65
28.30921 56
28.32592 44
28.34263 52
28.35935 66
28.37606 58
28.39277 50
28.40948 62
28.42619 59
28.44290 72
28.45961 57
28.47633 61
28.49304 66
28.50975 68
28.52646 53
28.54317 57
28.55988 50
28.57659 66
28.59330 71
28.61002 55
28.62673 76
28.64344 67
28.66015 77
28.67686 82
28.69357 71
28.71028 78
28.72699 85
28.74371 76
28.76042 84
28.77713 94
28.79384 87
28.81055 84
28.82726 78
28.84397 89
28.86068 93
28.87739 77
28.89411 69
28.91082 85
28.92753 70
28.94424 75
28.96095 75
28.97766 87
28.99437 73
29.01108 61
29.02780 84
29.04451 70
29.06122 87
29.07793 97
29.09464 85
29.11135 89
29.12806 99
29.14477 108
29.16149 122
29.17820 130
29.19491 123
29.21162 106
29.22833 125
29.24504 127
29.26175 125
29.27846 118
29.29518 122
29.31189 118
29.32860 134
29.34531 115
29.36202 125
29.37873 88
29.39544 140
29.41216 139
29.42887 132
29.44558 130
29.46229 121
29.47900 146
29.49571 138
29.51242 143
29.52913 125
29.54585 118
29.56256 129
29.57927 132
29.59598 94
29.61269 94
29.62940 99
29.64611 107
29.66282 84
29.67954 99
29.69625 85
29.71296 84
29.72967 85
29.74638 85
29.76309 82
29.77980 89
29.79651 78
29.81323 84
29.82994 78
29.84665 72
29.86336 80
29.88007 89
29.89678 75
29.91349 65
29.93021 64
29.94692 66
29.96363 70
29.98034 53
29.99705 55
30.01376 53
30.03047 66
30.04718 59
30.0639  60
30.08061 69
30.09732 53
30.11403 48
30.13074 65
30.14745 70
30.16416 45
30.18087 59
30.19759 49
30.2143  40
30.23101 81
30.24772 64
30.26443 59
30.28114 56
30.29785 68
30.31456 49
30.33128 51
30.34799 54
30.36470 67
30.38141 60
30.39812 35
30.41483 62
30.43154 57
30.44825 50
30.46497 75
30.48168 45
30.49839 62
30.51510 66
30.53181 52
30.54852 55
30.56523 66
30.58194 68
30.59866 67
30.61537 70
30.63208 64
30.64879 56
30.66550 65
30.68221 55
30.69892 73
30.71563 54
30.73234 59
30.74906 67
30.76577 66
30.78248 55
30.79919 44
30.81590 49
30.83261 54
30.84932 62
30.86604 54
30.88275 59
30.89946 57
30.91617 54
30.93288 60
30.94959 54
30.96630 52
30.98301 46
30.99973 65
31.01644 66
31.03315 61
31.04986 48
31.06657 65
31.08328 52
31.09999 70
31.11670 55
31.13342 51
31.15013 45
31.16684 56
31.18355 56
31.20026 52
31.21697 53
31.23368 55
31.25039 85
31.26711 81
31.28382 54
31.30053 52
31.31724 41
31.33395 64
31.35066 67
31.36737 83
31.38409 58
31.40080 52
31.41751 73
31.43422 88
31.45093 82
31.46764 73
31.48435 59
31.50106 66
31.51778 66
31.53449 69
31.55120 73
31.56791 74
31.58462 73
31.60133 72
31.61804 84
31.63475 70
31.65147 74
31.66818 86
31.68489 77
31.70160 87
31.71831 119
31.73502 105
31.75173 91
31.76845 94
31.78516 115
31.80187 133
31.81858 133
31.83529 132
31.85200 182
31.86871 181
31.88542 241
31.90214 232
31.91885 279
31.93556 321
31.95227 324
31.96898 350
31.98569 351
32.00240 370
32.01911 322
32.03582 338
32.05254 291
32.06925 310
32.08596 306
32.10267 267
32.11938 239
32.13609 244
32.15280 234
32.16951 246
32.18623 227
32.20294 227
32.21965 193
32.23636 207
32.25307 176
32.26978 166
32.28649 149
32.30321 136
32.31992 127
32.33663 125
32.35334 110
32.37005 114
32.38676 91
32.40347 88
32.42018 84
32.43690 96
32.45360 81
32.47032 92
32.48703 72
32.50374 86
32.52045 88
32.53716 88
32.55387 81
32.57059 73
32.58729 78
32.60401 72
32.62072 86
32.63743 70
32.65414 68
32.67085 70
32.68756 80
32.70428 83
32.72099 69
32.73770 70
32.75441 78
32.77112 65
32.78783 68
32.80454 73
32.82125 68
32.83797 77
32.85468 70
32.87139 86
32.88810 54
32.90481 80
32.92152 77
32.93823 94
32.95494 83
32.97166 75
32.98837 83
33.00508 101
33.02179 90
33.03850 91
33.05521 101
33.07192 121
33.08863 121
33.10535 145
33.12206 154
33.13877 187
33.15548 167
33.17219 177
33.18890 210
33.20562 208
33.22232 195
33.23904 186
33.25575 171
33.27246 169
33.28917 167
33.30588 129
33.32259 128
33.33931 132
33.35601 118
33.37273 109
33.38944 84
33.40615 78
33.42286 71
33.43957 88
33.45628 70
33.473   82
33.48970 85
33.50642 59
33.52313 78
33.53984 71
33.55655 60
33.57326 71
33.58997 77
33.60668 68
33.62339 57
33.64011 55
33.65682 58
33.67353 66
33.69024 71
33.70695 66
33.72366 68
33.74037 69
33.75709 55
33.7738  69
33.79051 71
33.80722 51
33.82393 73
33.84064 72
33.85735 84
33.87406 75
33.89078 59
33.90749 67
33.92420 84
33.94091 80
33.95762 89
33.97433 87
33.99104 74
34.00775 100
34.02447 89
34.04118 129
34.05789 147
34.07460 124
34.09131 138
34.10802 139
34.12473 117
34.14144 98
34.15816 110
34.17487 102
34.19158 102
34.20829 88
34.22500 94
34.24171 81
34.25842 89
34.27513 80
34.29185 88
34.30856 75
34.32527 55
34.34198 66
34.35869 75
34.37540 64
34.39211 40
34.40882 55
34.42554 55
34.44225 65
34.45896 54
34.47567 52
34.49238 61
34.50909 71
34.52580 58
34.54251 56
34.55923 78
34.57594 54
34.59265 57
34.60936 57
34.62607 54
34.64278 46
34.6595  54
34.67620 48
34.69292 49
34.70963 62
34.72634 57
34.74305 52
34.75976 55
34.77647 66
34.79319 58
34.80989 54
34.82661 70
34.84332 42
34.86003 57
34.87674 61
34.89345 50
34.91016 53
34.92688 61
34.94358 65
34.9603  72
34.97701 56
34.99372 64
35.01043 61
35.02714 57
35.04385 45
35.06057 43
35.07727 45
35.09399 65
35.11070 39
35.12741 57
35.14412 56
35.16083 59
35.17754 74
35.19426 56
35.21097 49
35.22768 52
35.24439 52
35.26110 66
35.27781 64
35.29452 60
35.31123 58
35.32795 59
35.34466 60
35.36137 58
35.37808 54
35.39479 61
35.41150 53
35.42821 56
35.44492 46
35.46163 71
35.47835 54
35.49506 65
35.51177 52
35.52848 65
35.54519 71
35.56190 54
35.57861 62
35.59532 64
35.61204 68
35.62875 75
35.64546 75
35.66217 75
35.67888 77
35.69559 66
35.71230 76
35.72901 58
35.74573 54
35.76244 66
35.77915 81
35.79586 73
35.81257 72
35.82928 66
35.84599 74
35.86270 70
35.87942 69
35.89613 51
35.91284 74
35.92955 66
35.94626 83
35.96297 68
35.97968 85
35.99639 76
36.01311 65
36.02982 71
36.04653 90
36.06324 90
36.07995 73
36.09666 71
36.11338 86
36.13008 71
36.14680 73
36.16351 97
36.18022 85
36.19693 84
36.21364 78
36.23035 76
36.24707 66
36.26377 73
36.28049 74
36.29720 78
36.31391 86
36.33062 77
36.34733 72
36.36404 85
36.38076 90
36.39746 71
36.41418 94
36.43089 84
36.44760 81
36.46431 78
36.48102 73
36.49773 58
36.51445 71
36.53116 66
36.54787 75
36.56458 74
36.58129 70
36.59800 83
36.61471 80
36.63142 72
36.64814 91
36.66485 78
36.68156 67
36.69827 84
36.71498 74
36.73169 71
36.74840 80
36.76511 91
36.78183 62
36.79854 62
36.81525 76
36.83196 71
36.84867 75
36.86538 83
36.88209 74
36.89880 72
36.91552 60
36.93223 71
36.94894 90
36.96565 69
36.98236 83
36.99907 72
37.01578 72
37.03249 75
37.04921 61
37.06592 62
37.08263 70
37.09934 59
37.11605 69
37.13276 66
37.14947 81
37.16618 69
37.18289 73
37.19961 78
37.21632 70
37.23303 84
37.24974 68
37.26645 68
37.28316 68
37.29987 68
37.31658 73
37.33330 53
37.35001 74
37.36672 74
37.38343 60
37.40014 50
37.41685 61
37.43356 50
37.45027 74
37.46699 62
37.48370 53
37.50041 64
37.51712 58
37.53383 58
37.55054 58
37.56726 72
37.58396 64
37.60068 54
37.61739 64
37.63410 54
37.65081 59
37.66752 54
37.68423 56
37.70095 59
37.71765 49
37.73437 49
37.75108 54
37.76779 71
37.78450 55
37.80121 48
37.81792 75
37.83464 62
37.85134 56
37.86806 57
37.88477 54
37.90148 62
37.91819 48
37.93490 58
37.95161 76
37.96833 55
37.98504 46
38.00175 49
38.01846 52
38.03517 74
38.05188 61
38.06859 61
38.08530 61
38.10202 70
38.11873 58
38.13544 61
38.15215 58
38.16886 46
38.18557 69
38.20228 56
38.21899 46
38.23571 57
38.25242 58
38.26913 57
38.28584 61
38.30255 50
38.31926 62
38.33597 65
38.35268 41
38.3694  53
38.38611 51
38.40282 56
38.41953 43
38.43624 51
38.45295 59
38.46966 42
38.48637 58
38.50309 43
38.51980 49
38.53651 55
38.55322 54
38.56993 52
38.58664 42
38.60335 60
38.62006 50
38.63678 54
38.65349 48
38.67020 54
38.68691 54
38.70362 52
38.72033 56
38.73704 54
38.75375 65
38.77047 44
38.78718 56
38.80389 60
38.82060 58
38.83731 57
38.85402 69
38.87073 54
38.88744 51
38.90416 49
38.92087 60
38.93758 48
38.95429 55
38.97100 66
38.98771 61
39.00442 56
39.02114 61
39.03784 56
39.05456 72
39.07127 43
39.08798 66
39.10469 62
39.12140 52
39.13811 60
39.15483 60
39.17153 49
39.18825 53
39.20496 58
39.22167 67
39.23838 58
39.25509 77
39.27180 73
39.28852 82
39.30522 81
39.32194 62
39.33865 81
39.35536 66
39.37207 66
39.38878 84
39.40549 80
39.42221 78
39.43892 65
39.45563 70
39.47234 58
39.48905 71
39.50576 85
39.52247 56
39.53918 66
39.55590 69
39.57261 59
39.58932 64
39.60603 70
39.62274 64
39.63945 69
39.65616 70
39.67287 51
39.68959 62
39.70630 59
39.72301 40
39.73972 51
39.75643 61
39.77314 53
39.78985 64
39.80656 66
39.82328 71
39.83999 61
39.85670 65
39.87341 48
39.89012 58
39.90683 58
39.92355 65
39.94025 60
39.95697 76
39.97368 72
39.99039 68
40.00710 76
40.02381 67
40.04052 65
40.05724 67
40.07394 73
40.09066 88
40.10737 77
40.12408 83
40.14079 121
40.15750 119
40.17421 96
40.19092 123
40.20763 122
40.22435 106
40.24106 112
40.25777 104
40.27448 112
40.29119 85
40.30790 89
40.32461 83
40.34133 81
40.35804 73
40.37475 75
40.39146 61
40.40817 64
40.42488 85
40.44159 65
40.45830 59
40.47502 73
40.49173 65
40.50844 61
40.52515 51
40.54186 65
40.55857 59
40.57528 51
40.59199 58
40.60871 59
40.62542 56
40.64213 61
40.65884 60
40.67555 58
40.69226 49
40.70897 48
40.72568 56
40.74240 48
40.75910 66
40.77582 56
40.79253 57
40.80924 54
40.82595 61
40.84266 55
40.85937 59
40.87609 57
40.89280 57
40.90951 48
40.92622 62
40.94293 46
40.95964 26
40.97635 50
40.99306 50
41.00978 42
41.02649 43
41.04320 48
41.05991 48
41.07662 52
41.09333 57
41.11004 49
41.12675 50
41.14347 43
41.16018 43
41.17689 44
41.19360 44
41.21031 44
41.22702 53
41.24373 43
41.26044 38
41.27716 46
41.29387 39
41.31058 53
41.32729 45
41.34400 40
41.36071 51
41.37743 57
41.39413 44
41.41085 36
41.42756 44
41.44427 44
41.46098 43
41.47769 39
41.49440 43
41.51112 44
41.52782 52
41.54454 43
41.56125 42
41.57796 45
41.59467 52
41.61138 29
41.62809 46
41.64481 46
41.66151 41
41.67823 42
41.69494 42
41.71165 49
41.72836 40
41.74507 36
41.76178 48
41.7785  38
41.79521 43
41.81192 52
41.82863 51
41.84534 48
41.86205 44
41.87876 32
41.89547 50
41.91218 36
41.92890 41
41.94561 38
41.96232 46
41.97903 39
41.99574 39
42.01245 54
42.02916 39
42.04587 49
42.06259 40
42.0793  52
42.09601 43
42.11272 55
42.12943 49
42.14614 54
42.16285 39
42.17956 42
42.19628 44
42.21299 50
42.22970 57
42.24641 41
42.26312 45
42.27983 39
42.29654 42
42.31325 56
42.32997 59
42.34668 59
42.36339 43
42.38010 65
42.39681 62
42.41352 56
42.43023 53
42.44694 59
42.46366 41
42.48037 43
42.49708 60
42.51379 60
42.53050 70
42.54721 43
42.56392 42
42.58063 56
42.59735 52
42.61406 51
42.63077 41
42.64748 54
42.66419 49
42.68090 48
42.69761 35
42.71432 51
42.73104 39
42.74775 32
42.76446 44
42.78117 36
42.79788 41
42.81459 42
42.83131 41
42.84801 55
42.86473 39
42.88144 52
42.89815 49
42.91486 42
42.93157 49
42.94828 52
42.965   51
42.98170 44
42.99842 41
43.01513 51
43.03184 53
43.04855 32
43.06526 49
43.08197 52
43.09869 49
43.11539 45
43.13211 52
43.14882 44
43.16553 48
43.18224 59
43.19895 43
43.21566 53
43.23238 53
43.24909 41
43.2658  60
43.28251 41
43.29922 45
43.31593 36
43.33264 53
43.34935 44
43.36607 59
43.38278 54
43.39949 53
43.41620 39
43.43291 65
43.44962 57
43.46633 45
43.48304 55
43.49976 51
43.51647 55
43.53318 64
43.54989 52
43.56660 49
43.58331 46
43.60002 41
43.61673 65
43.63345 59
43.65016 41
43.66687 42
43.68358 38
43.70029 61
43.71700 54
43.73371 51
43.75042 51
43.76713 54
43.78385 39
43.80056 65
43.81727 56
43.83398 46
43.85069 60
43.86740 66
43.88411 49
43.90082 46
43.91754 46
43.93425 43
43.95096 36
43.96767 36
43.98438 61
44.00109 45
44.01780 34
44.03451 27
44.05123 41
44.06794 41
44.08465 35
44.10136 41
44.11807 29
44.13478 26
44.15150 49
44.16820 36
44.18492 41
44.20163 41
44.21834 41
44.23505 54
44.25176 38
44.26847 38
44.28519 58
44.30189 48
44.31861 42
44.33532 49
44.35203 43
44.36874 56
44.38545 48
44.40216 49
44.41888 39
44.43558 41
44.45230 43
44.46901 43
44.48572 39
44.50243 41
44.51914 56
44.53585 45
44.55257 32
44.56927 48
44.58599 34
44.60270 51
44.61941 42
44.63612 39
44.65283 30
44.66954 45
44.68626 37
44.70297 50
44.71968 42
44.73639 28
44.75310 41
44.76981 41
44.78652 33
44.80323 43
44.81995 50
44.83666 44
44.85337 33
44.87008 38
44.88679 37
44.90350 54
44.92021 56
44.93692 43
44.95364 57
44.97035 37
44.98706 40
45.00377 39
45.02048 48
45.03719 35
45.05390 41
45.07061 40
45.08733 38
45.10404 36
45.12075 48
45.13746 59
45.15417 36
45.17088 40
45.18759 33
45.20430 49
45.22102 45
45.23773 50
45.25444 41
45.27115 50
45.28786 65
45.30457 45
45.32128 39
45.33799 52
45.35471 52
45.37142 46
45.38813 44
45.40484 39
45.42155 45
45.43826 38
45.45497 39
45.47168 42
45.4884  37
45.50511 42
45.52182 36
45.53853 41
45.55524 32
45.57195 42
45.58866 37
45.60538 43
45.62208 39
45.63880 41
45.65551 54
45.67222 39
45.68893 54
45.70564 34
45.72235 44
45.73907 48
45.75577 41
45.77249 41
45.78920 53
45.80591 38
45.82262 53
45.83933 41
45.85604 44
45.87276 52
45.88946 37
45.90618 30
45.92289 39
45.93960 38
45.95631 40
45.97302 28
45.98973 48
46.00645 40
46.02315 44
46.03987 44
46.05658 27
46.07329 42
46.09000 38
46.10671 50
46.12342 37
46.14014 39
46.15685 40
46.17356 40
46.19027 49
46.20698 28
46.22369 39
46.24040 41
46.25711 34
46.27383 46
46.29054 49
46.30725 40
46.32396 45
46.34067 51
46.35738 48
46.37409 44
46.39080 44
46.40752 43
46.42423 34
46.44094 50
46.45765 44
46.47436 44
46.49107 40
46.50779 37
46.52449 62
46.54121 43
46.55792 43
46.57463 37
46.59134 30
46.60805 44
46.62476 38
46.64147 43
46.65818 46
46.6749  55
46.69161 52
46.70832 49
46.72503 52
46.74174 52
46.75845 52
46.77516 50
46.79187 58
46.80859 73
46.82530 80
46.84201 66
46.85872 71
46.87543 74
46.89214 102
46.90885 101
46.92556 104
46.94228 96
46.95899 89
46.97570 106
46.99241 113
47.00912 98
47.02583 108
47.04254 98
47.05926 122
47.07597 115
47.09268 94
47.10939 78
47.12610 87
47.14281 77
47.15952 50
47.17623 56
47.19295 66
47.20966 64
47.22637 60
47.24308 57
47.25979 57
47.27650 50
47.29321 59
47.30992 56
47.32664 49
47.34334 58
47.36006 59
47.37677 56
47.39348 54
47.41019 51
47.42690 58
47.44361 55
47.46033 60
47.47704 51
47.49375 58
47.51046 61
47.52717 64
47.54388 57
47.56059 54
47.57730 39
47.59402 51
47.61073 64
47.62744 49
47.64415 55
47.66086 64
47.67757 51
47.69428 46
47.71099 42
47.72771 50
47.74442 53
47.76113 67
47.77784 49
47.79455 59
47.81126 65
47.82797 57
47.84468 52
47.86140 38
47.87811 53
47.89482 60
47.91153 34
47.92824 53
47.94495 51
47.96167 46
47.97837 57
47.99509 49
48.01180 50
48.02851 48
48.04522 56
48.06193 62
48.07864 40
48.09536 51
48.11206 46
48.12878 45
48.14549 41
48.16220 44
48.17891 53
48.19562 46
48.21233 65
48.22905 62
48.24575 53
48.26247 54
48.27918 53
48.29589 85
48.31260 66
48.32931 67
48.34602 75
48.36274 86
48.37944 81
48.39616 83
48.41287 69
48.42958 74
48.44629 65
48.46300 67
48.47971 76
48.49642 69
48.51314 66
48.52985 56
48.54656 76
48.56327 60
48.57998 65
48.59669 54
48.61340 52
48.63011 65
48.64683 58
48.66354 45
48.68025 62
48.69696 60
48.71367 52
48.73038 62
48.74709 46
48.76380 67
48.78052 53
48.79723 45
48.81394 40
48.83065 65
48.84736 52
48.86407 51
48.88078 60
48.89749 54
48.91421 52
48.93092 60
48.94763 41
48.96434 46
48.98105 37
48.99776 52
49.01447 46
49.03118 42
49.04790 58
49.06461 61
49.08132 53
49.09803 46
49.11474 49
49.13145 43
49.14816 48
49.16487 49
49.18159 45
49.19830 58
49.21501 61
49.23172 51
49.24843 60
49.26514 51
49.28185 52
49.29856 45
49.31528 59
49.33199 64
49.34870 61
49.36541 60
49.38212 62
49.39883 93
49.41555 76
49.43225 80
49.44897 103
49.46568 92
49.48239 120
49.49910 123
49.51581 101
49.53252 135
49.54924 123
49.56594 100
49.58266 108
49.59937 98
49.61608 90
49.63279 89
49.64950 96
49.66621 85
49.68293 87
49.69963 86
49.71635 68
49.73306 70
49.74977 49
49.76648 58
49.78319 58
49.79990 60
49.81662 40
49.83333 54
49.85004 45
49.86675 43
49.88346 51
49.90017 46
49.91688 48
49.93359 59
49.95031 40
49.96702 33
49.98373 40
50.00044 52
50.01715 33
50.03386 38
50.05057 44
50.06728 38
50.084   43
50.10071 30
50.11742 43
50.13413 39
50.15084 39
50.16755 37
50.18426 52
50.20097 45
50.21769 50
50.23440 19
50.25111 51
50.26782 39
50.28453 36
50.30124 43
50.31795 41
50.33466 32
50.35137 46
50.36809 48
50.38480 33
50.40151 46
50.41822 32
50.43493 38
50.45164 49
50.46835 32
50.48506 38
50.50178 46
50.51849 50
50.53520 56
50.55191 38
50.56862 35
50.58533 40
50.60204 46
50.61875 51
50.63547 38
50.65218 41
50.66889 38
50.68560 36
50.70231 43
50.71902 36
50.73573 53
50.75244 40
50.76916 50
50.78587 55
50.80258 62
50.81929 41
50.83600 51
50.85271 58
50.86943 55
50.88613 67
50.90285 41
50.91956 67
50.93627 62
50.95298 64
50.96969 78
50.98640 62
51.00312 61
51.01982 57
51.03654 66
51.05325 83
51.06996 72
51.08667 56
51.10338 68
51.12009 59
51.13681 54
51.15351 60
51.17023 51
51.18694 29
51.20365 64
51.22036 65
51.23707 55
51.25378 58
51.2705  43
51.28721 53
51.30392 49
51.32063 40
51.33734 45
51.35405 46
51.37076 39
51.38747 37
51.40419 38
51.42090 49
51.43761 52
51.45432 46
51.47103 40
51.48774 40
51.50445 41
51.52116 41
51.53788 37
51.55459 43
51.57130 48
51.58801 60
51.60472 43
51.62143 51
51.63814 55
51.65485 51
51.67157 58
51.68828 46
51.70499 52
51.72170 54
51.73841 49
51.75512 62
51.77183 59
51.78854 62
51.80526 77
51.82197 69
51.83868 48
51.85539 56
51.87210 77
51.88881 72
51.90552 62
51.92223 69
51.93895 59
51.95566 55
51.97237 60
51.98908 60
52.00579 67
52.02250 51
52.03921 58
52.05592 45
52.07263 38
52.08935 37
52.10606 53
52.12277 46
52.13948 36
52.15619 49
52.17290 51
52.18961 49
52.20632 27
52.22304 39
52.23975 50
52.25646 66
52.27317 49
52.28988 60
52.30659 72
52.32331 60
52.34001 54
52.35673 72
52.37344 72
52.39015 75
52.40686 68
52.42357 82
52.44028 65
52.45700 81
52.47370 83
52.49042 74
52.50713 74
52.52384 56
52.54055 61
52.55726 67
52.57397 62
52.59069 68
52.60739 72
52.62411 72
52.64082 45
52.65753 49
52.67424 52
52.69095 45
52.70766 57
52.72438 50
52.74109 43
52.75780 49
52.77451 54
52.79122 50
52.80793 52
52.82464 56
52.84135 55
52.85807 58
52.87478 68
52.89149 65
52.90820 70
52.92491 78
52.94162 69
52.95833 96
52.97504 88
52.99176 71
53.00847 80
53.02518 68
53.04189 77
53.05860 104
53.07531 75
53.09202 69
53.10873 86
53.12545 53
53.14216 66
53.15887 52
53.17558 45
53.19229 56
53.20900 66
53.22571 52
53.24242 48
53.25914 56
53.27585 53
53.29256 41
53.30927 50
53.32598 51
53.34269 49
53.35940 40
53.37611 29
53.39283 45
53.40954 29
53.42625 43
53.44296 53
53.45967 39
53.47638 46
53.49309 45
53.50980 37
53.52652 53
53.54323 35
53.55994 52
53.57665 42
53.59336 44
53.61007 42
53.62678 54
53.64350 49
53.66021 49
53.67692 44
53.69363 48
53.71034 40
53.72705 38
53.74376 33
53.76047 30
53.77719 39
53.7939  42
53.81061 39
53.82732 53
53.84403 39
53.86074 28
53.87745 39
53.89416 37
53.91088 46
53.92758 28
53.94430 50
53.96101 45
53.97772 34
53.99443 36
54.01114 41
54.02785 29
54.04457 29
54.06127 37
54.07799 39
54.09470 45
54.11141 37
54.12812 34
54.14483 35
54.16154 41
54.17826 37
54.19497 37
54.21168 37
54.22839 45
54.24510 39
54.26181 28
54.27852 35
54.29523 33
54.31195 34
54.32866 43
54.34537 35
54.36208 50
54.37879 29
54.39550 39
54.41221 30
54.42892 45
54.44564 38
54.46235 45
54.47906 29
54.49577 41
54.51248 29
54.52919 39
54.54590 29
54.56261 36
54.57933 27
54.59604 48
54.61275 33
54.62946 40
54.64617 40
54.66288 29
54.6796  36
54.69630 36
54.71302 32
54.72973 29
54.74644 39
54.76315 32
54.77986 36
54.79657 29
54.81329 28
54.82999 43
54.84671 39
54.86342 36
54.88013 28
54.89684 35
54.91355 27
54.93026 35
54.94698 29
54.96368 33
54.9804  32
54.99711 25
55.01382 25
55.03053 34
55.04724 33
55.06395 26
55.08066 34
55.09738 34
55.11409 39
55.13080 34
55.14751 22
55.16422 30
55.18093 23
55.19764 35
55.21435 29
55.23107 30
55.24778 26
55.26449 24
55.28120 29
55.29791 37
55.31462 29
55.33133 32
55.34804 32
55.36476 22
55.38147 30
55.39818 28
55.41489 30
55.43160 23
55.44831 21
55.46502 32
55.48173 38
55.49845 34
55.51516 40
55.53187 18
55.54858 26
55.56529 25
55.58200 39
55.59871 36
55.61542 32
55.63214 23
55.64885 34
55.66556 32
55.68227 37
55.69898 37
55.71569 33
55.73240 28
55.74911 23
55.76583 27
55.78254 26
55.79925 24
55.81596 35
55.83267 27
55.84938 35
55.86609 24
55.88280 40
55.89952 14
55.91623 27
55.93294 33
55.94965 28
55.96636 29
55.98307 22
55.99978 38
56.01649 44
56.03321 35
56.04992 35
56.06663 28
56.08334 34
56.10005 37
56.11676 30
56.13348 37
56.15018 36
56.16690 33
56.18361 34
56.20032 36
56.21703 41
56.23374 40
56.25045 39
56.26717 29
56.28387 37
56.30059 46
56.31730 50
56.33401 46
56.35072 54
56.36743 41
56.38414 46
56.40086 51
56.41756 33
56.43428 32
56.45099 48
56.46770 34
56.48441 34
56.50112 29
56.51783 35
56.53455 38
56.55126 34
56.56797 35
56.58468 32
56.60139 40
56.61810 43
56.63481 29
56.65152 29
56.66824 32
56.68495 37
56.70166 42
56.71837 39
56.73508 33
56.75179 39
56.76850 29
56.78521 36
56.80192 29
56.81864 37
56.83535 42
56.85206 32
56.86877 32
56.88548 41
56.90219 34
56.91890 32
56.93561 37
56.95233 37
56.96904 33
56.98575 33
57.00246 44
57.01917 33
57.03588 45
57.05259 32
57.06930 30
57.08602 37
57.10273 43
57.11944 32
57.13615 39
57.15286 35
57.16957 34
57.18628 32
57.20299 32
57.21971 39
57.23642 50
57.25313 33
57.26984 48
57.28655 28
57.30326 54
57.31997 32
57.33668 42
57.35340 39
57.37011 36
57.38682 40
57.40353 37
57.42024 46
57.43695 30
57.45367 46
57.47037 50
57.48709 54
57.50380 38
57.52051 33
57.53722 40
57.55393 36
57.57064 30
57.58736 35
57.60406 34
57.62078 27
57.63749 41
57.65420 43
57.67091 45
57.68762 39
57.70433 30
57.72105 27
57.73775 25
57.75447 34
57.77118 29
57.78789 38
57.80460 40
57.82131 38
57.83802 30
57.85474 34
57.87144 33
57.88816 32
57.90487 33
57.92158 41
57.93829 25
57.95500 34
57.97171 34
57.98843 27
58.00514 27
58.02185 39
58.03856 32
58.05527 35
58.07198 23
58.08869 25
58.10540 33
58.12212 32
58.13883 23
58.15554 22
58.17225 34
58.18896 39
58.20567 22
58.22238 26
58.23909 39
58.25581 29
58.27252 26
58.28923 26
58.30594 35
58.32265 27
58.33936 33
58.35607 37
58.37278 35
58.3895  33
58.40621 35
58.42292 36
58.43963 36
58.45634 36
58.47305 35
58.48976 23
58.50647 30
58.52319 30
58.53990 30
58.55661 34
58.57332 32
58.59003 33
58.60674 40
58.62345 37
58.64016 35
58.65687 46
58.67359 49
58.69030 45
58.70701 34
58.72372 39
58.74043 38
58.75714 34
58.77385 42
58.79056 37
58.80728 40
58.82399 50
58.84070 41
58.85741 37
58.87412 36
58.89083 37
58.90755 39
58.92425 28
58.94097 41
58.95768 27
58.97439 32
58.99110 37
59.00781 39
59.02452 35
59.04124 34
59.05794 23
59.07466 28
59.09137 34
59.10808 30
59.12479 43
59.14150 36
59.15821 48
59.17493 32
59.19163 35
59.20835 25
59.22506 29
59.24177 27
59.25848 37
59.27519 28
59.29190 19
59.30862 28
59.32532 39
59.34204 27
59.35875 37
59.37546 27
59.39217 36
59.40888 50
59.42559 34
59.44231 35
59.45902 25
59.47573 29
59.49244 29
59.50915 24
59.52586 30
59.54257 34
59.55928 37
59.576   30
59.59271 28
59.60942 36
59.62613 27
59.64284 27
59.65955 33
59.67626 45
59.69297 27
59.70969 24
59.72640 29
59.74311 23
59.75982 34
59.77653 25
59.79324 29
59.80995 32
59.82666 42
59.84338 25
59.86009 23
59.87680 39
59.89351 30
59.91022 41
59.92693 35
59.94364 33
59.96035 32
59.97707 36
59.99378 28
60.01049 29
60.02720 34
60.04391 30
60.06062 32
60.07733 33
60.09404 34
60.11076 25
60.12747 24
60.14418 28
60.16089 27
60.17760 39
60.19431 29
60.21102 19
60.22773 27
60.24445 24
60.26116 37
60.27787 32
60.29458 34
60.31129 33
60.32800 29
60.34471 30
60.36143 35
60.37813 27
60.39485 35
60.41156 32
60.42827 37
60.44498 45
60.46169 43
60.47840 36
60.49512 40
60.51182 29
60.52854 43
60.54525 42
60.56196 30
60.57867 35
60.59538 49
60.61209 26
60.62881 39
60.64551 49
60.66223 43
60.67894 38
60.69565 43
60.71236 43
60.72907 44
60.74578 33
60.76250 39
60.77921 38
60.79592 40
60.81263 37
60.82934 44
60.84605 49
60.86276 36
60.87947 35
60.89619 43
60.91290 35
60.92961 43
60.94632 43
60.96303 45
60.97974 49
60.99645 42
61.01316 38
61.02988 54
61.04659 43
61.06330 51
61.08001 54
61.09672 43
61.11343 46
61.13014 45
61.14685 60
61.16357 39
61.18028 41
61.19699 41
61.21370 41
61.23041 52
61.24712 36
61.26384 39
61.28054 44
61.29726 35
61.31397 49
61.33068 39
61.34739 33
61.36410 27
61.38081 29
61.39753 29
61.41423 54
61.43095 34
61.44766 29
61.46437 27
61.48108 39
61.49779 25
61.51450 34
61.53121 40
61.54792 37
61.56464 35
61.58135 37
61.59806 44
61.61477 45
61.63148 50
61.64819 53
61.66490 51
61.68161 55
61.69833 40
61.71504 54
61.73175 27
61.74846 39
61.76517 29
61.78188 37
61.79859 29
61.81531 48
61.83202 43
61.84873 34
61.86544 39
61.88215 27
61.89886 29
61.91557 41
61.93228 28
61.94900 34
61.96571 39
61.98242 26
61.99913 37
62.01584 30
62.03255 33
62.04926 34
62.06597 34
62.08269 24
62.0994  51
62.11611 40
62.13282 36
62.14953 37
62.16624 36
62.18295 35
62.19966 35
62.21638 33
62.23309 35
62.24980 30
62.26651 36
62.28322 36
62.29993 32
62.31664 33
62.33335 26
62.35007 24
62.36678 23
62.38349 34
62.40020 35
62.41691 33
62.43362 26
62.45033 33
62.46704 37
62.48376 30
62.50047 25
62.51718 35
62.53389 28
62.55060 33
62.56731 24
62.58402 30
62.60073 38
62.61745 33
62.63416 23
62.65087 32
62.66758 27
62.68429 21
62.70100 30
62.71772 29
62.73442 19
62.75114 26
62.76785 42
62.78456 48
62.80127 34
62.81798 29
62.83469 30
62.85141 37
62.86811 28
62.88483 21
62.90154 29
62.91825 28
62.93496 34
62.95167 25
62.96838 29
62.9851  39
63.00180 25
63.01852 19
63.03523 42
63.05194 25
63.06865 29
63.08536 43
63.10207 28
63.11879 42
63.13549 27
63.15221 23
63.16892 24
63.18563 23
63.20234 38
63.21905 38
63.23576 35
63.25248 25
63.26919 41
63.2859  37
63.30261 39
63.31932 33
63.33603 40
63.35274 35
63.36945 37
63.38616 39
63.40288 46
63.41959 42
63.43630 38
63.45301 43
63.46972 41
63.48643 57
63.50314 48
63.51985 48
63.53657 37
63.55328 43
63.56999 39
63.58670 51
63.60341 46
63.62012 51
63.63683 54
63.65354 46
63.67026 43
63.68697 36
63.70368 51
63.72039 48
63.73710 37
63.75381 43
63.77052 50
63.78723 50
63.80395 37
63.82066 51
63.83737 34
63.85408 38
63.87079 34
63.88750 44
63.90421 39
63.92092 51
63.93764 42
63.95435 42
63.97106 44
63.98777 39
64.00448 34
64.02119 42
64.03791 45
64.05461 58
64.07132 45
64.08804 44
64.10475 40
64.12146 40
64.13817 51
64.15488 39
64.1716  45
64.18830 42
64.20502 44
64.22173 50
64.23844 41
64.25515 44
64.27186 41
64.28857 51
64.30529 42
64.32199 48
64.33871 35
64.35542 39
64.37213 26
64.38884 36
64.40555 36
64.42226 35
64.43898 41
64.45568 46
64.47240 39
64.48911 42
64.50582 55
64.52253 42
64.53924 43
64.55595 43
64.57267 39
64.58937 38
64.60609 44
64.62280 32
64.63951 34
64.65622 57
64.67293 39
64.68965 34
64.70636 49
64.72306 41
64.73978 28
64.75649 40
64.77320 44
64.78991 35
64.80662 40
64.82334 38
64.84005 30
64.85675 43
64.87347 33
64.89018 43
64.90689 35
64.92360 37
64.94031 46
64.95703 41
64.97374 45
64.99044 34
65.00716 44
65.02387 34
65.04058 28
65.05729 39
65.07400 43
65.09072 33
65.10743 39
65.12413 45
65.14085 41
65.15756 27
65.17427 39
65.19098 41
65.20769 48
65.22441 44
65.24111 41
65.25782 35
65.27454 34
65.29125 30
65.30796 38
65.32467 29
65.34138 40
65.35810 27
65.37480 28
65.39151 43
65.40823 36
65.42494 38
65.44165 48
65.45836 40
65.47507 43
65.49179 28
65.50849 38
65.52521 43
65.54192 37
65.55863 32
65.57534 43
65.59205 49
65.60876 38
65.62548 43
65.64218 54
65.65890 59
65.67561 46
65.69232 37
65.70903 53
65.72574 51
65.74245 60
65.75917 40
65.77587 45
65.79259 46
65.80930 36
65.82601 34
65.84272 49
65.85943 45
65.87614 41
65.89286 45
65.90956 39
65.92628 43
65.94299 55
65.95970 41
65.97641 39
65.99312 40
66.00984 38
66.02655 44
66.04325 30
66.05997 41
66.07668 41
66.09339 36
66.11010 35
66.12681 49
66.14353 36
66.16024 33
66.17694 36
66.19366 37
66.21037 36
66.22708 33
66.24379 44
66.26050 43
66.27722 38
66.29393 24
66.31063 35
66.32735 32
66.34406 40
66.36077 29
66.37748 25
66.39419 35
66.41091 33
66.42762 20
66.44432 37
66.46104 27
66.47775 28
66.49446 34
66.51117 25
66.52788 35
66.54460 26
66.56131 37
66.57801 36
66.59473 35
66.61144 24
66.62815 30
66.64486 38
66.66157 39
66.67829 38
66.695   30
66.71170 26
66.72842 41
66.74513 32
66.76184 27
66.77855 40
66.79526 35
66.81198 28
66.82869 40
66.84539 21
66.86211 34
66.87882 32
66.89553 17
66.91224 38
66.92895 38
66.94567 28
66.96237 35
66.97909 36
66.99580 38
67.01251 24
67.02922 22
67.04593 24
67.06264 33
67.07936 43
67.09606 34
67.11278 24
67.12949 29
67.14620 30
67.16291 25
67.17962 33
67.19633 36
67.21305 17
67.22975 34
67.24647 35
67.26318 25
67.27989 30
67.29660 24
67.31331 36
67.33002 30
67.34674 26
67.36344 32
67.38016 33
67.39687 22
67.41358 27
67.43029 22
67.44700 24
67.46372 29
67.48043 36
67.49713 32
67.51385 37
67.53056 22
67.54727 36
67.56398 19
67.58069 21
67.59741 23
67.61412 37
67.63082 37
67.64754 37
67.66425 23
67.68096 28
67.69767 18
67.71438 26
67.73110 22
67.74781 22
67.76451 27
67.78123 34
67.79794 20
67.81465 25
67.83136 24
67.84807 21
67.86479 36
67.8815  23
67.89820 25
67.91492 19
67.93163 36
67.94834 28
67.96505 16
67.98176 29
67.99848 38
68.01519 28
68.03189 38
68.04861 19
68.06532 27
68.08203 27
68.09874 22
68.11545 29
68.13217 16
68.14888 27
68.16558 16
68.18230 35
68.19901 36
68.21572 24
68.23243 22
68.24914 25
68.26586 28
68.28257 18
68.29927 33
68.31599 17
68.33270 33
68.34941 25
68.36612 27
68.38283 28
68.39955 19
68.41626 21
68.43297 37
68.44968 25
68.46639 35
68.48310 33
68.49981 16
68.51652 27
68.53324 25
68.54995 21
68.56666 25
68.58337 23
68.60008 30
68.61679 39
68.63350 32
68.65021 26
68.66693 30
68.68364 27
68.70035 26
68.71706 20
68.73377 27
68.75048 23
68.76719 22
68.78390 20
68.80062 27
68.81732 27
68.83404 25
68.85075 19
68.86746 28
68.88417 25
68.90088 30
68.91760 22
68.93431 30
68.95101 20
68.96773 23
68.98444 21
69.00115 21
69.01786 34
69.03457 26
69.05129 39
69.06800 27
69.08470 24
69.10142 19
69.11813 22
69.13484 22
69.15155 19
69.16826 25
69.18498 38
69.20169 21
69.21839 12
69.23511 18
69.25182 14
69.26853 23
69.28524 22
69.30195 24
69.31867 34
69.33538 21
69.35208 24
69.36880 30
69.38551 19
69.40222 26
69.41893 26
69.43564 35
69.45236 29
69.46907 14
69.48577 19
69.50249 20
69.51920 20
69.53591 23
69.55262 29
69.56933 18
69.58605 17
69.60276 22
69.61946 13
69.63618 24
69.65289 26
69.66960 29
69.68631 27
69.70302 20
69.71974 18
69.73645 14
69.75315 19
69.76987 28
69.78658 19
69.80329 18
69.82000 30
69.83671 18
69.85343 24
69.87014 21
69.88685 25
69.90356 21
69.92027 33
69.93698 24
69.95369 24
69.97040 24
69.98712 27
70.00383 22
