2973_RGR1_D09_003 #1 @Phi=210.5
3.008356 8
3.025067 8
3.041778 8
3.058489 6
3.075201 4
3.091912 5
3.108623 10
3.125335 12
3.142046 15
3.158757 13
3.175468 16
3.19218  14
3.208891 9
3.225602 10
3.242313 4
3.259025 6
3.275736 9
3.292447 10
3.309159 12
3.32587  10
3.342581 8
3.359292 9
3.376004 9
3.392715 10
3.409426 7
3.426137 9
3.442849 6
3.45956  7
3.476271 5
3.492982 0
3.509694 1
3.526405 7
3.543116 9
3.559828 8
3.576539 7
3.59325  9
3.609961 9
3.626673 11
3.643384 10
3.660095 8
3.676806 11
3.693518 10
3.710229 8
3.72694  4
3.743651 3
3.760363 2
3.777074 5
3.793785 4
3.810497 7
3.827208 11
3.843919 8
3.86063  10
3.877342 14
3.894053 21
3.910764 24
3.927475 22
3.944187 22
3.960898 22
3.977609 24
3.99432  27
4.011032 23
4.027743 28
4.044454 31
4.061165 35
4.077877 34
4.094588 27
4.1113   20
4.128011 18
4.144722 19
4.161433 19
4.178144 13
4.194856 16
4.211567 12
4.228278 13
4.244989 16
4.261701 14
4.278412 13
4.295123 17
4.311834 20
4.328546 18
4.345257 13
4.361969 13
4.37868  10
4.395391 12
4.412102 10
4.428813 10
4.445525 14
4.462236 22
4.478947 22
4.495658 22
4.51237  21
4.529081 19
4.545792 18
4.562504 15
4.579215 7
4.595926 7
4.612638 14
4.629349 16
4.64606  13
4.662771 16
4.679482 18
4.696194 17
4.712905 22
4.729616 20
4.746327 19
4.763039 24
4.77975  29
4.796462 25
4.813173 22
4.829884 21
4.846595 20
4.863307 17
4.880018 21
4.896729 17
4.91344  19
4.930151 19
4.946863 19
4.963574 17
4.980285 18
4.996996 16
5.013708 16
5.030419 17
5.047131 19
5.063842 23
5.080553 23
5.097264 23
5.113976 25
5.130687 28
5.147398 29
5.164109 25
5.18082  24
5.197532 20
5.214243 19
5.230954 19
5.247665 21
5.264377 27
5.281088 28
5.2978   30
5.314511 33
5.331222 29
5.347933 28
5.364645 23
5.381356 23
5.398067 23
5.414778 28
5.431489 29
5.448201 24
5.464912 22
5.481623 21
5.498334 16
5.515046 12
5.531757 11
5.548469 14
5.56518  18
5.581891 19
5.598602 21
5.615314 18
5.632025 18
5.648736 16
5.665447 18
5.682158 12
5.69887  15
5.715581 17
5.732292 19
5.749004 19
5.765715 20
5.782426 19
5.799138 18
5.815849 14
5.83256  14
5.849271 9
5.865983 7
5.882694 8
5.899405 13
5.916116 14
5.932827 23
5.949539 27
5.96625  29
5.982962 27
5.999673 29
6.016384 24
6.033095 18
6.049807 16
6.066518 16
6.083229 8
6.09994  14
6.116652 16
6.133363 19
6.150074 22
6.166785 21
6.183496 19
6.200208 19
6.216919 20
6.233631 16
6.250342 11
6.267053 14
6.283764 14
6.300476 13
6.317187 11
6.333898 7
6.350609 3
6.367321 7
6.384032 11
6.400743 9
6.417454 14
6.434165 16
6.450877 15
6.467588 18
6.4843   17
6.501011 18
6.517722 16
6.534433 17
6.551145 17
6.567856 14
6.584567 16
6.601278 16
6.61799  14
6.634701 11
6.651412 9
6.668123 8
6.684834 3
6.701546 4
6.718257 7
6.734969 7
6.75168  9
6.768391 9
6.785102 9
6.801814 5
6.818525 6
6.835236 5
6.851947 8
6.868659 13
6.88537  17
6.902081 17
6.918792 15
6.935504 12
6.952215 12
6.968926 7
6.985638 8
7.002349 9
7.01906  11
7.035771 10
7.052483 7
7.069194 6
7.085905 6
7.102616 5
7.119328 8
7.136039 8
7.15275  13
7.169462 16
7.186173 16
7.202884 12
7.219595 11
7.236307 8
7.253018 11
7.269729 16
7.28644  18
7.303152 18
7.319863 20
7.336574 18
7.353285 15
7.369997 11
7.386708 8
7.403419 6
7.420131 11
7.436842 13
7.453553 13
7.470264 10
7.486976 11
7.503687 9
7.520398 11
7.537109 11
7.553821 8
7.570532 9
7.587243 9
7.603954 6
7.620666 8
7.637377 4
7.654088 8
7.6708   11
7.687511 13
7.704222 12
7.720933 11
7.737645 8
7.754356 8
7.771067 7
7.787778 6
7.80449  5
7.821201 8
7.837912 9
7.854623 6
7.871335 9
7.888046 10
7.904757 9
7.921469 11
7.93818  12
7.954891 13
7.971602 14
7.988314 11
8.005025 10
8.021736 6
8.038447 6
8.055159 3
8.07187  3
8.088581 2
8.105292 0
8.122004 3
8.138715 6
8.155426 8
8.172137 10
8.188848 13
8.20556  16
8.222271 18
8.238983 18
8.255694 14
8.272406 8
8.289117 7
8.305828 4
8.322539 3
8.339251 0
8.355962 5
8.372673 8
8.389384 11
8.406096 11
8.422807 12
8.439518 11
8.456229 10
8.47294  7
8.489652 5
8.506363 2
8.523074 8
8.539785 8
8.556497 11
8.573208 8
8.589919 11
8.60663  12
8.623342 9
8.640053 9
8.656764 9
8.673475 4
8.690187 10
8.706898 8
8.72361  11
8.740321 9
8.757032 14
8.773744 13
8.790455 15
8.807166 19
8.823877 15
8.840589 13
8.8573   16
8.874011 15
8.890722 17
8.907434 16
8.924145 19
8.940856 19
8.957567 20
8.974278 18
8.99099  15
9.007701 15
9.024412 17
9.041123 17
9.057835 17
9.074546 17
9.091257 15
9.107968 10
9.12468  5
9.141391 4
9.158102 10
9.174813 16
9.191525 23
9.208237 26
9.224948 27
9.241659 25
9.25837  19
9.275082 10
9.291793 1
9.308504 2
9.325215 5
9.341927 7
9.358638 10
9.375349 11
9.39206  12
9.408772 11
9.425483 11
9.442194 8
9.458905 7
9.475616 9
9.492328 7
9.509039 6
9.52575  9
9.542461 8
9.559173 9
9.575884 11
9.592595 10
9.609306 11
9.626018 13
9.642729 14
9.65944  14
9.676152 13
9.692863 15
9.709575 9
9.726286 10
9.742997 10
9.759708 5
9.77642  10
9.793131 12
9.809842 13
9.826553 15
9.843265 15
9.859976 15
9.876687 10
9.893398 12
9.91011  14
9.926821 12
9.943532 15
9.960243 12
9.976954 7
9.993666 8
10.01037 9
10.02708 8
10.04379 7
10.06051 11
10.07722 11
10.09393 13
10.11064 13
10.12735 13
10.14406 14
10.16077 18
10.17749 17
10.19420 17
10.21091 16
10.22762 16
10.24433 14
10.26104 13
10.27775 10
10.29446 14
10.31118 17
10.32789 14
10.34460 14
10.36131 14
10.37802 16
10.39473 17
10.41144 17
10.42815 11
10.44487 12
10.46158 15
10.47829 15
10.49500 14
10.51171 12
10.52842 11
10.54513 14
10.56184 12
10.57856 12
10.59527 9
10.61198 10
10.62869 10
10.64540 12
10.66211 10
10.67882 9
10.69553 12
10.71225 15
10.72896 12
10.74567 11
10.76238 11
10.77909 12
10.79580 15
10.81251 14
10.82922 15
10.84594 17
10.86265 16
10.87936 15
10.89607 10
10.91278 8
10.92949 6
10.94620 8
10.96291 8
10.97963 7
10.99634 10
11.01305 12
11.02976 10
11.04647 9
11.06318 13
11.07989 15
11.09661 13
11.11332 15
11.13003 12
11.14674 12
11.16345 13
11.18016 13
11.19687 9
11.21358 6
11.2303  9
11.24701 9
11.26372 9
11.28043 10
11.29714 10
11.31385 13
11.33056 13
11.34727 13
11.36399 14
11.38070 10
11.39741 11
11.41412 10
11.43083 11
11.44754 10
11.46425 9
11.48096 10
11.49768 8
11.51439 11
11.53110 13
11.54781 14
11.56452 18
11.58123 16
11.59794 16
11.61465 15
11.63137 13
11.64808 11
11.66479 9
11.68150 9
11.69821 9
11.71492 7
11.73163 10
11.74834 9
11.76506 8
11.78177 8
11.79848 8
11.81519 8
11.83190 8
11.84861 5
11.86532 5
11.88203 4
11.89875 10
11.91546 12
11.93217 12
11.94888 10
11.96559 11
11.98230 11
11.99901 10
12.01572 5
12.03244 6
12.04915 9
12.06586 13
12.08257 12
12.09928 13
12.11599 12
12.13270 9
12.14942 9
12.16613 9
12.18284 8
12.19955 9
12.21626 10
12.23297 8
12.24968 6
12.26639 6
12.28311 6
12.29982 3
12.31653 8
12.33324 12
12.34995 15
12.36666 14
12.38337 13
12.40008 14
12.4168  11
12.43351 11
12.45022 11
12.46693 8
12.48364 11
12.50035 12
12.51706 10
12.53377 6
12.55049 7
12.56720 9
12.58391 10
12.60062 12
12.61733 11
12.63404 9
12.65075 11
12.66746 9
12.68418 5
12.70089 5
12.71760 8
12.73431 9
12.75102 10
12.76773 8
12.78444 8
12.80115 9
12.81787 9
12.83458 8
12.85129 8
12.86800 11
12.88471 11
12.90142 9
12.91813 8
12.93484 4
12.95156 3
12.96827 6
12.98498 7
13.00169 8
13.01840 9
13.03511 8
13.05182 10
13.06854 10
13.08525 10
13.10196 6
13.11867 5
13.13538 8
13.15209 9
13.16880 8
13.18551 6
13.20222 4
13.21894 6
13.23565 6
13.25236 4
13.26907 3
13.28578 6
13.30249 8
13.31920 11
13.33591 13
13.35263 12
13.36934 10
13.38605 8
13.40276 5
13.41947 4
13.43618 2
13.45289 4
13.46961 4
13.48632 4
13.50303 5
13.51974 7
13.53645 8
13.55316 8
13.56987 7
13.58658 7
13.6033  4
13.62001 5
13.63672 6
13.65343 6
13.67014 8
13.68685 10
13.70356 10
13.72027 8
13.73699 7
13.75370 5
13.77041 4
13.78712 3
13.80383 5
13.82054 5
13.83725 7
13.85396 8
13.87068 7
13.88739 8
13.90410 11
13.92081 11
13.93752 11
13.95423 10
13.97094 11
13.98765 8
14.00437 9
14.02108 7
14.03779 5
14.05450 6
14.07121 8
14.08792 7
14.10463 7
14.12134 8
14.13806 9
14.15477 7
14.17148 7
14.18819 5
14.20490 4
14.22161 6
14.23832 9
14.25503 9
14.27175 8
14.28846 8
14.30517 10
14.32188 11
14.33859 9
14.35530 7
14.37201 8
14.38872 12
14.40544 12
14.42215 9
14.43886 8
14.45557 7
14.47228 8
14.48899 9
14.50570 8
14.52242 10
14.53913 14
14.55584 17
14.57255 15
14.58926 13
14.60597 13
14.62268 10
14.63939 11
14.65611 10
14.67282 11
14.68953 12
14.70624 12
14.72295 12
14.73966 10
14.75637 7
14.77308 9
14.7898  10
14.80651 12
14.82322 10
14.83993 10
14.85664 9
14.87335 7
14.89006 4
14.90677 4
14.92349 6
14.94020 9
14.95691 11
14.97362 13
14.99033 13
15.00704 14
15.02375 15
15.04046 14
15.05718 10
15.07389 12
15.09060 10
15.10731 8
15.12402 12
15.14073 14
15.15744 12
15.17415 13
15.19087 13
15.20758 15
15.22429 16
15.24100 18
15.25771 17
15.27442 16
15.29113 16
15.30784 14
15.32456 12
15.34127 12
15.35798 10
15.37469 11
15.39140 9
15.40811 7
15.42482 9
15.44154 8
15.45825 6
15.47496 9
15.49167 11
15.50838 11
15.52509 7
15.54180 6
15.55851 5
15.57523 5
15.59194 8
15.60865 8
15.62536 8
15.64207 7
15.65878 8
15.67549 10
15.69220 10
15.70892 10
15.72563 12
15.74234 13
15.75905 15
15.77576 15
15.79247 14
15.80918 9
15.82589 10
15.84260 12
15.85932 10
15.87603 6
15.89274 7
15.90945 10
15.92616 13
15.94287 12
15.95958 10
15.9763  9
15.99301 10
16.00972 11
16.02643 9
16.04314 5
16.05985 9
16.07656 9
16.09327 9
16.10999 9
16.12670 9
16.14341 11
16.16012 13
16.17683 12
16.19354 12
16.21025 9
16.22696 10
16.24368 9
16.26039 9
16.27710 8
16.29381 5
16.31052 7
16.32723 5
16.34394 6
16.36065 9
16.37737 8
16.39408 6
16.41079 8
16.42750 9
16.44421 11
16.46092 11
16.47763 13
16.49434 13
16.51106 13
16.52777 13
16.54448 12
16.56119 11
16.57790 10
16.59461 8
16.61132 8
16.62804 10
16.64475 12
16.66146 11
16.67817 8
16.69488 10
16.71159 11
16.72830 10
16.74501 8
16.76173 5
16.77844 6
16.79515 6
16.81186 9
16.82857 12
16.84528 13
16.86199 15
16.87870 15
16.89542 15
16.91213 14
16.92884 12
16.94555 8
16.96226 6
16.97897 9
16.99568 14
17.01239 15
17.02911 13
17.04582 14
17.06253 15
17.07924 12
17.09595 10
17.11266 8
17.12937 8
17.14609 8
17.1628  11
17.17951 11
17.19622 9
17.21293 8
17.22964 7
17.24635 6
17.26306 6
17.27977 6
17.29649 7
17.31320 7
17.32991 7
17.34662 5
17.36333 7
17.38004 8
17.39675 7
17.41346 8
17.43018 8
17.44689 11
17.46360 12
17.48031 11
17.49702 7
17.51373 8
17.53044 14
17.54715 15
17.56387 13
17.58058 12
17.59729 12
17.61400 12
17.63071 11
17.64742 7
17.66413 4
17.68084 4
17.69756 6
17.71427 7
17.73098 8
17.74769 8
17.76440 11
17.78111 11
17.79782 9
17.81453 8
17.83125 6
17.84796 4
17.86467 2
17.88138 4
17.89809 5
17.91480 8
17.93151 10
17.94822 10
17.96494 11
17.98165 13
17.99836 13
18.01507 10
18.03178 8
18.04849 8
18.06520 7
18.08192 5
18.09863 4
18.11534 4
18.13205 8
18.14876 8
18.16547 9
18.18218 9
18.19889 10
18.21561 10
18.23232 10
18.24903 8
18.26574 8
18.28245 10
18.29916 12
18.31587 11
18.33258 12
18.3493  11
18.36601 12
18.38272 14
18.39943 12
18.41614 11
18.43285 11
18.44956 12
18.46628 13
18.48299 10
18.49970 8
18.51641 7
18.53312 6
18.54983 4
18.56654 4
18.58325 5
18.59997 7
18.61668 10
18.63339 11
18.65010 9
18.66681 7
18.68352 7
18.70023 7
18.71694 5
18.73366 7
18.75037 6
18.76708 8
18.78379 9
18.80050 10
18.81721 10
18.83392 12
18.85063 12
18.86735 9
18.88406 8
18.90077 9
18.91748 13
18.93419 13
18.95090 16
18.96761 17
18.98432 16
19.00104 14
19.01775 11
19.03446 6
19.05117 4
19.06788 3
19.08459 5
19.10130 8
19.11801 11
19.13472 10
19.15144 8
19.16815 11
19.18486 13
19.20157 13
19.21828 12
19.23499 9
19.25170 10
19.26841 10
19.28513 8
19.30184 5
19.31855 4
19.33526 9
19.35197 12
19.36868 13
19.38539 12
19.40210 11
19.41882 9
19.43553 6
19.45224 4
19.46895 4
19.48566 4
19.50237 6
19.51908 7
19.53580 5
19.55251 5
19.56922 5
19.58593 5
19.60264 8
19.61935 9
19.63606 11
19.65277 12
19.66949 15
19.68620 16
19.70291 13
19.71962 11
19.73633 10
19.75304 10
19.76975 10
19.78646 9
19.80318 9
19.81989 11
19.83660 13
19.85331 12
19.87002 9
19.88673 5
19.90344 7
19.92016 6
19.93687 6
19.95358 7
19.97029 7
19.98700 8
20.00371 7
20.02042 5
20.03713 1
20.05385 3
20.07056 5
20.08727 8
20.10398 9
20.12069 10
20.13740 10
20.15411 10
20.17082 8
20.18754 6
20.20425 2
20.22096 3
20.23767 4
20.25438 9
20.27109 10
20.28780 11
20.30451 11
20.32123 10
20.33794 9
20.35465 7
20.37136 7
20.38807 7
20.40478 10
20.42149 15
20.43821 16
20.45492 14
20.47163 13
20.48834 11
20.50505 11
20.52176 13
20.53847 14
20.55518 14
20.57189 16
20.58861 15
20.60532 14
20.62203 11
20.63874 13
20.65545 11
20.67216 12
20.68887 16
20.70558 15
20.7223  14
20.73901 15
20.75572 10
20.77243 11
20.78914 10
20.80585 12
20.82256 12
20.83927 13
20.85599 15
20.87270 12
20.88941 9
20.90612 6
20.92283 4
20.93954 6
20.95625 7
20.97296 9
20.98968 8
21.00639 10
21.02310 10
21.03981 11
21.05652 12
21.07323 10
21.08994 13
21.10665 16
21.12337 14
21.14008 12
21.15679 8
21.17350 9
21.19021 8
21.20692 8
21.22363 6
21.24034 4
21.25706 7
21.27377 6
21.29048 8
21.30719 9
21.32390 11
21.34061 12
21.35732 11
21.37404 10
21.39075 7
21.40746 5
21.42417 5
21.44088 4
21.45759 7
21.47430 6
21.49101 6
21.50773 5
21.52444 6
21.54115 9
21.55786 11
21.57457 11
21.59128 11
21.60799 13
21.62470 14
21.64142 14
21.65813 13
21.67484 9
21.69155 10
21.70826 11
21.72497 12
21.74168 11
21.75839 9
21.77511 8
21.79182 9
21.80853 9
21.82524 7
21.84195 4
21.85866 5
21.87537 9
21.89209 10
21.9088  12
21.92551 12
21.94222 12
21.95893 13
21.97564 12
21.99235 11
22.00906 11
22.02578 10
22.04249 8
22.05920 5
22.07591 5
22.09262 6
22.10933 9
22.12604 12
22.14275 14
22.15947 15
22.17618 15
22.19289 14
22.20960 11
22.22631 8
22.24302 6
22.25973 8
22.27644 9
22.29315 10
22.30987 11
22.32658 12
22.34329 14
22.36000 16
22.37671 16
22.39342 14
22.41013 12
22.42684 10
22.44356 8
22.46027 8
22.47698 8
22.49369 10
22.51040 13
22.52711 19
22.54382 22
22.56053 23
22.57725 22
22.59396 18
22.61067 18
22.62738 18
22.64409 20
22.66080 22
22.67751 23
22.69422 28
22.71094 30
22.72765 35
22.74436 37
22.76107 36
22.77778 41
22.79449 45
22.81120 50
22.82792 52
22.84463 53
22.86134 58
22.87805 62
22.89476 64
22.91147 68
22.92818 68
22.94489 75
22.96161 83
22.97832 91
22.99503 99
23.01174 103
23.02845 105
23.04516 103
23.06187 99
23.07858 100
23.09530 95
23.11201 90
23.12872 89
23.14543 88
23.16214 81
23.17885 71
23.19556 61
23.21228 51
23.22899 44
23.24570 40
23.26241 39
23.27912 38
23.29583 43
23.31254 44
23.32925 39
23.34597 33
23.36268 27
23.37939 22
23.39610 19
23.41281 16
23.42952 20
23.44623 23
23.46294 24
23.47966 23
23.49637 19
23.51308 15
23.52979 16
23.54650 17
23.56321 16
23.57992 14
23.59663 16
23.61335 15
23.63006 13
23.64677 12
23.66348 9
23.68019 8
23.69690 9
23.71361 11
23.73033 11
23.74704 10
23.76375 12
23.78046 12
23.79717 11
23.81388 8
23.83059 7
23.84730 7
23.86401 9
23.88073 12
23.89744 11
23.91415 10
23.93086 8
23.94757 8
23.96428 5
23.98099 7
23.99770 9
24.01442 10
24.03113 12
24.04784 13
24.06455 11
24.08126 9
24.09797 8
24.11468 8
24.13139 6
24.14810 7
24.16482 5
24.18153 5
24.19824 6
24.21495 8
24.23166 8
24.24837 10
24.26508 10
24.28180 9
24.29851 5
24.31522 3
24.33193 3
24.34864 6
24.36535 7
24.38206 9
24.39877 8
24.41549 10
24.43220 9
24.44891 8
24.46562 7
24.48233 7
24.49904 6
24.51575 6
24.53246 6
24.54918 6
24.56589 6
24.58260 8
24.59931 8
24.61602 9
24.63273 8
24.64944 7
24.66616 4
24.68287 2
24.69958 2
24.71629 2
24.73300 2
24.74971 3
24.76642 4
24.78313 4
24.79985 3
24.81656 2
24.83327 1
24.84998 2
24.86669 3
24.88340 5
24.90011 6
24.91682 6
24.93354 5
24.95025 4
24.96696 3
24.98367 2
25.00038 0
25.01709 2
25.03380 2
25.05051 2
25.06723 1
25.08394 2
25.10065 4
25.11736 6
25.13407 8
25.15078 8
25.16749 8
25.18421 8
25.20092 8
25.21763 9
25.23434 9
25.25105 10
25.26776 10
25.28447 9
25.30118 7
25.3179  4
25.33461 1
25.35132 0
25.36803 0
25.38474 3
25.40145 3
25.41816 3
25.43487 4
25.45159 4
25.4683  3
25.48501 4
25.50172 3
25.51843 4
25.53514 5
25.55185 4
25.56856 3
25.58527 2
25.60199 2
25.61870 2
25.63541 2
25.65212 5
25.66883 5
25.68554 8
25.70225 9
25.71896 9
25.73568 7
25.75239 5
25.76910 6
25.78581 8
25.80252 10
25.81923 11
25.83594 11
25.85265 9
25.86937 9
25.88608 11
25.90279 10
25.91950 11
25.93621 15
25.95292 18
25.96963 17
25.98634 19
26.00306 20
26.01977 22
26.03648 28
26.05319 34
26.06990 38
26.08661 38
26.10332 44
26.12004 50
26.13675 54
26.15346 61
26.17017 61
26.18688 62
26.20359 63
26.22030 63
26.23701 67
26.25373 70
26.27044 79
26.28715 88
26.30386 91
26.32057 94
26.33728 93
26.35399 99
26.37070 102
26.38742 106
26.40413 114
26.42084 115
26.43755 115
26.45426 114
26.47097 109
26.48768 108
26.50439 103
26.52111 99
26.53782 94
26.55453 90
26.57124 82
26.58795 73
26.60466 64
26.62137 58
26.63809 53
26.6548  51
26.67151 45
26.68822 40
26.70493 33
26.72164 30
26.73835 25
26.75506 26
26.77178 26
26.78849 23
26.80520 25
26.82191 22
26.83862 22
26.85533 20
26.87204 14
26.88875 14
26.90547 13
26.92218 15
26.93889 16
26.95560 13
26.97231 14
26.98902 11
27.00573 9
27.02244 10
27.03916 10
27.05587 10
27.07258 16
27.08929 19
27.10600 20
27.12271 18
27.13942 14
27.15613 12
27.17285 10
27.18956 9
27.20627 9
27.22298 9
27.23969 11
27.25640 10
27.27311 8
27.28982 3
27.30654 1
27.32325 3
27.33996 3
27.35667 3
27.37338 6
27.39009 7
27.40680 8
27.42351 9
27.44022 7
27.45694 5
27.47365 6
27.49036 5
27.50707 3
27.52378 4
27.54049 4
27.55720 4
27.57392 5
27.59063 5
27.60734 5
27.62405 7
27.64076 6
27.65747 7
27.67418 7
27.69089 7
27.70761 6
27.72432 6
27.74103 6
27.75774 6
27.77445 7
27.79116 7
27.80787 8
27.82458 10
27.84130 13
27.85801 14
27.87472 15
27.89143 14
27.90814 13
27.92485 12
27.94156 12
27.95827 13
27.97499 17
27.99170 21
28.00841 25
28.02512 25
28.04183 25
28.05854 23
28.07525 20
28.09197 19
28.10868 18
28.12539 19
28.14210 20
28.15881 20
28.17552 22
28.19223 20
28.20894 20
28.22566 17
28.24237 17
28.25908 18
28.27579 18
28.29250 22
28.30921 24
28.32592 26
28.34263 29
28.35935 24
28.37606 24
28.39277 17
28.40948 17
28.42619 18
28.44290 19
28.45961 23
28.47633 21
28.49304 23
28.50975 23
28.52646 18
28.54317 19
28.55988 20
28.57659 27
28.59330 34
28.61002 37
28.62673 39
28.64344 38
28.66015 37
28.67686 31
28.69357 28
28.71028 28
28.72699 31
28.74371 39
28.76042 45
28.77713 51
28.79384 56
28.81055 62
28.82726 67
28.84397 70
28.86068 79
28.87739 84
28.89411 90
28.91082 98
28.92753 101
28.94424 108
28.96095 115
28.97766 120
28.99437 137
29.01108 158
29.02780 190
29.04451 212
29.06122 242
29.07793 267
29.09464 289
29.11135 315
29.12806 339
29.14477 359
29.16149 395
29.17820 446
29.19491 509
29.21162 578
29.22833 650
29.24504 715
29.26175 780
29.27846 841
29.29518 893
29.31189 931
29.32860 978
29.34531 1022
29.36202 1071
29.37873 1108
29.39544 1128
29.41216 1140
29.42887 1136
29.44558 1129
29.46229 1114
29.47900 1078
29.49571 1053
29.51242 1018
29.52913 972
29.54585 897
29.56256 816
29.57927 726
29.59598 635
29.61269 569
29.62940 510
29.64611 453
29.66282 422
29.67954 392
29.69625 353
29.71296 313
29.72967 283
29.74638 254
29.76309 235
29.77980 222
29.79651 207
29.81323 189
29.82994 167
29.84665 143
29.86336 127
29.88007 110
29.89678 104
29.91349 100
29.93021 98
29.94692 91
29.96363 86
29.98034 78
29.99705 70
30.01376 66
30.03047 62
30.04718 54
30.0639  49
30.08061 46
30.09732 45
30.11403 43
30.13074 43
30.14745 43
30.16416 38
30.18087 34
30.19759 27
30.2143  23
30.23101 19
30.24772 21
30.26443 22
30.28114 23
30.29785 24
30.31456 23
30.33128 19
30.34799 15
30.36470 10
30.38141 10
30.39812 12
30.41483 13
30.43154 17
30.44825 20
30.46497 20
30.48168 16
30.49839 14
30.51510 10
30.53181 5
30.54852 4
30.56523 5
30.58194 5
30.59866 9
30.61537 11
30.63208 12
30.64879 11
30.66550 12
30.68221 12
30.69892 9
30.71563 8
30.73234 10
30.74906 11
30.76577 10
30.78248 9
30.79919 7
30.81590 5
30.83261 3
30.84932 0
30.86604 0
30.88275 1
30.89946 4
30.91617 5
30.93288 6
30.94959 6
30.96630 6
30.98301 6
30.99973 4
31.01644 1
31.03315 3
31.04986 3
31.06657 1
31.08328 1
31.09999 4
31.11670 5
31.13342 10
31.15013 11
31.16684 13
31.18355 13
31.20026 18
31.21697 20
31.23368 19
31.25039 19
31.26711 19
31.28382 17
31.30053 19
31.31724 17
31.33395 18
31.35066 20
31.36737 24
31.38409 27
31.40080 27
31.41751 27
31.43422 27
31.45093 25
31.46764 21
31.48435 19
31.50106 19
31.51778 17
31.53449 15
31.55120 19
31.56791 17
31.58462 19
31.60133 20
31.61804 18
31.63475 14
31.65147 14
31.66818 12
31.68489 10
31.70160 9
31.71831 13
31.73502 12
31.75173 15
31.76845 17
31.78516 16
31.80187 13
31.81858 11
31.83529 4
31.85200 3
31.86871 2
31.88542 5
31.90214 7
31.91885 9
31.93556 11
31.95227 11
31.96898 9
31.98569 7
32.00240 3
32.01911 2
32.03582 0
32.05254 2
32.06925 5
32.08596 6
32.10267 6
32.11938 7
32.13609 7
32.15280 10
32.16951 11
32.18623 11
32.20294 12
32.21965 12
32.23636 12
32.25307 13
32.26978 13
32.28649 13
32.30321 15
32.31992 17
32.33663 16
32.35334 12
32.37005 13
32.38676 9
32.40347 12
32.42018 15
32.43690 15
32.45360 15
32.47032 17
32.48703 15
32.50374 11
32.52045 8
32.53716 7
32.55387 5
32.57059 8
32.58729 8
32.60401 7
32.62072 7
32.63743 8
32.65414 6
32.67085 4
32.68756 6
32.70428 7
32.72099 8
32.73770 9
32.75441 9
32.77112 8
32.78783 7
32.80454 9
32.82125 8
32.83797 7
32.85468 10
32.87139 10
32.88810 9
32.90481 6
32.92152 7
32.93823 5
32.95494 4
32.97166 5
32.98837 7
33.00508 6
33.02179 8
33.03850 9
33.05521 10
33.07192 8
33.08863 10
33.10535 8
33.12206 8
33.13877 5
33.15548 6
33.17219 5
33.18890 6
33.20562 6
33.22232 6
33.23904 5
33.25575 6
33.27246 6
33.28917 5
33.30588 3
33.32259 4
33.33931 4
33.35601 5
33.37273 4
33.38944 4
33.40615 3
33.42286 3
33.43957 2
33.45628 2
33.473   2
33.48970 3
33.50642 3
33.52313 5
33.53984 7
33.55655 6
33.57326 6
33.58997 7
33.60668 5
33.62339 5
33.64011 6
33.65682 5
33.67353 5
33.69024 5
33.70695 5
33.72366 4
33.74037 4
33.75709 4
33.7738  3
33.79051 2
33.80722 2
33.82393 3
33.84064 5
33.85735 6
33.87406 7
33.89078 9
33.90749 9
33.92420 8
33.94091 7
33.95762 4
33.97433 0
33.99104 0
34.00775 3
34.02447 5
34.04118 6
34.05789 7
34.07460 8
34.09131 7
34.10802 6
34.12473 6
34.14144 5
34.15816 6
34.17487 9
34.19158 9
34.20829 8
34.22500 11
34.24171 12
34.25842 11
34.27513 10
34.29185 12
34.30856 9
34.32527 7
34.34198 8
34.35869 6
34.37540 6
34.39211 7
34.40882 7
34.42554 7
34.44225 6
34.45896 6
34.47567 5
34.49238 6
34.50909 7
34.52580 8
34.54251 9
34.55923 9
34.57594 9
34.59265 8
34.60936 7
34.62607 6
34.64278 4
34.6595  2
34.67620 3
34.69292 4
34.70963 6
34.72634 6
34.74305 7
34.75976 6
34.77647 6
34.79319 6
34.80989 6
34.82661 4
34.84332 5
34.86003 4
34.87674 4
34.89345 4
34.91016 4
34.92688 6
34.94358 7
34.9603  9
34.97701 9
34.99372 9
35.01043 9
35.02714 9
35.04385 8
35.06057 10
35.07727 11
35.09399 13
35.11070 14
35.12741 15
35.14412 13
35.16083 14
35.17754 16
35.19426 17
35.21097 17
35.22768 16
35.24439 17
35.26110 17
35.27781 20
35.29452 22
35.31123 24
35.32795 30
35.34466 36
35.36137 37
35.37808 35
35.39479 30
35.41150 28
35.42821 23
35.44492 22
35.46163 22
35.47835 24
35.49506 27
35.51177 33
35.52848 39
35.54519 40
35.56190 39
35.57861 39
35.59532 37
35.61204 34
35.62875 36
35.64546 31
35.66217 35
35.67888 42
35.69559 51
35.71230 57
35.72901 62
35.74573 67
35.76244 70
35.77915 71
35.79586 72
35.81257 64
35.82928 71
35.84599 74
35.86270 81
35.87942 96
35.89613 106
35.91284 121
35.92955 130
35.94626 137
35.96297 132
35.97968 121
35.99639 116
36.01311 106
36.02982 101
36.04653 104
36.06324 106
36.07995 111
36.09666 113
36.11338 116
36.13008 113
36.14680 105
36.16351 96
36.18022 84
36.19693 74
36.21364 69
36.23035 63
36.24707 60
36.26377 60
36.28049 57
36.29720 55
36.31391 48
36.33062 41
36.34733 34
36.36404 30
36.38076 30
36.39746 27
36.41418 28
36.43089 29
36.44760 26
36.46431 27
36.48102 25
36.49773 22
36.51445 23
36.53116 21
36.54787 19
36.56458 17
36.58129 16
36.59800 15
36.61471 13
36.63142 11
36.64814 9
36.66485 8
36.68156 7
36.69827 4
36.71498 2
36.73169 1
36.74840 2
36.76511 5
36.78183 5
36.79854 7
36.81525 7
36.83196 7
36.84867 7
36.86538 5
36.88209 4
36.89880 3
36.91552 5
36.93223 8
36.94894 9
36.96565 9
36.98236 8
36.99907 7
37.01578 4
37.03249 3
37.04921 1
37.06592 2
37.08263 3
37.09934 4
37.11605 5
37.13276 5
37.14947 5
37.16618 4
37.18289 2
37.19961 3
37.21632 2
37.23303 4
37.24974 5
37.26645 6
37.28316 7
37.29987 6
37.31658 6
37.33330 3
37.35001 4
37.36672 6
37.38343 5
37.40014 7
37.41685 9
37.43356 9
37.45027 8
37.46699 6
37.48370 6
37.50041 3
37.51712 3
37.53383 2
37.55054 1
37.56726 3
37.58396 3
37.60068 4
37.61739 3
37.63410 3
37.65081 5
37.66752 4
37.68423 4
37.70095 6
37.71765 9
37.73437 10
37.75108 10
37.76779 11
37.78450 9
37.80121 6
37.81792 5
37.83464 2
37.85134 2
37.86806 1
37.88477 1
37.90148 0
37.91819 0
37.93490 2
37.95161 2
37.96833 4
37.98504 7
38.00175 9
38.01846 9
38.03517 8
38.05188 7
38.06859 5
38.08530 2
38.10202 4
38.11873 3
38.13544 4
38.15215 4
38.16886 5
38.18557 6
38.20228 5
38.21899 5
38.23571 3
38.25242 3
38.26913 4
38.28584 6
38.30255 7
38.31926 7
38.33597 9
38.35268 9
38.3694  7
38.38611 5
38.40282 5
38.41953 6
38.43624 5
38.45295 8
38.46966 9
38.48637 10
38.50309 11
38.51980 10
38.53651 11
38.55322 11
38.56993 12
38.58664 13
38.60335 17
38.62006 20
38.63678 20
38.65349 20
38.67020 22
38.68691 23
38.70362 23
38.72033 24
38.73704 26
38.75375 28
38.77047 29
38.78718 31
38.80389 29
38.82060 28
38.83731 29
38.85402 29
38.87073 31
38.88744 30
38.90416 34
38.92087 34
38.93758 37
38.95429 40
38.97100 36
38.98771 36
39.00442 32
39.02114 35
39.03784 35
39.05456 33
39.07127 40
39.08798 45
39.10469 52
39.12140 53
39.13811 55
39.15483 61
39.17153 63
39.18825 69
39.20496 76
39.22167 92
39.23838 102
39.25509 110
39.27180 112
39.28852 118
39.30522 123
39.32194 122
39.33865 123
39.35536 125
39.37207 135
39.38878 150
39.40549 152
39.42221 154
39.43892 160
39.45563 168
39.47234 164
39.48905 155
39.50576 152
39.52247 146
39.53918 141
39.55590 142
39.57261 144
39.58932 140
39.60603 138
39.62274 131
39.63945 126
39.65616 118
39.67287 105
39.68959 92
39.70630 86
39.72301 82
39.73972 75
39.75643 67
39.77314 60
39.78985 59
39.80656 57
39.82328 53
39.83999 50
39.85670 51
39.87341 51
39.89012 47
39.90683 38
39.92355 36
39.94025 33
39.95697 30
39.97368 24
39.99039 27
40.00710 28
40.02381 30
40.04052 30
40.05724 31
40.07394 28
40.09066 24
40.10737 21
40.12408 20
40.14079 18
40.15750 17
40.17421 15
40.19092 17
40.20763 16
40.22435 17
40.24106 15
40.25777 13
40.27448 12
40.29119 9
40.30790 7
40.32461 5
40.34133 6
40.35804 8
40.37475 9
40.39146 10
40.40817 12
40.42488 15
40.44159 15
40.45830 16
40.47502 16
40.49173 15
40.50844 14
40.52515 13
40.54186 11
40.55857 8
40.57528 8
40.59199 8
40.60871 7
40.62542 9
40.64213 8
40.65884 8
40.67555 7
40.69226 8
40.70897 5
40.72568 6
40.74240 8
40.75910 7
40.77582 8
40.79253 9
40.80924 10
40.82595 9
40.84266 9
40.85937 12
40.87609 11
40.89280 12
40.90951 12
40.92622 9
40.94293 10
40.95964 8
40.97635 5
40.99306 4
41.00978 4
41.02649 6
41.04320 7
41.05991 6
41.07662 6
41.09333 5
41.11004 5
41.12675 4
41.14347 3
41.16018 4
41.17689 4
41.19360 6
41.21031 7
41.22702 10
41.24373 11
41.26044 10
41.27716 10
41.29387 8
41.31058 7
41.32729 4
41.34400 2
41.36071 4
41.37743 6
41.39413 10
41.41085 11
41.42756 12
41.44427 14
41.46098 14
41.47769 13
41.49440 13
41.51112 12
41.52782 13
41.54454 11
41.56125 9
41.57796 8
41.59467 7
41.61138 5
41.62809 6
41.64481 6
41.66151 6
41.67823 6
41.69494 7
41.71165 7
41.72836 7
41.74507 6
41.76178 6
41.7785  7
41.79521 8
41.81192 6
41.82863 7
41.84534 9
41.86205 10
41.87876 10
41.89547 7
41.91218 7
41.92890 8
41.94561 8
41.96232 6
41.97903 3
41.99574 6
42.01245 10
42.02916 11
42.04587 11
42.06259 10
42.0793  13
42.09601 14
42.11272 12
42.12943 10
42.14614 6
42.16285 10
42.17956 11
42.19628 13
42.21299 16
42.22970 20
42.24641 23
42.26312 25
42.27983 25
42.29654 23
42.31325 19
42.32997 15
42.34668 9
42.36339 9
42.38010 10
42.39681 14
42.41352 13
42.43023 19
42.44694 25
42.46366 31
42.48037 33
42.49708 33
42.51379 33
42.53050 35
42.54721 32
42.56392 30
42.58063 25
42.59735 25
42.61406 25
42.63077 25
42.64748 25
42.66419 29
42.68090 31
42.69761 35
42.71432 33
42.73104 38
42.74775 41
42.76446 42
42.78117 47
42.79788 46
42.81459 47
42.83131 49
42.84801 47
42.86473 50
42.88144 46
42.89815 52
42.91486 57
42.93157 61
42.94828 65
42.965   71
42.98170 78
42.99842 89
43.01513 101
43.03184 113
43.04855 118
43.06526 129
43.08197 134
43.09869 135
43.11539 134
43.13211 134
43.14882 133
43.16553 141
43.18224 145
43.19895 149
43.21566 156
43.23238 158
43.24909 164
43.2658  161
43.28251 159
43.29922 150
43.31593 149
43.33264 145
43.34935 139
43.36607 139
43.38278 140
43.39949 131
43.41620 129
43.43291 115
43.44962 108
43.46633 94
43.48304 87
43.49976 76
43.51647 72
43.53318 68
43.54989 67
43.56660 61
43.58331 59
43.60002 57
43.61673 61
43.63345 61
43.65016 59
43.66687 58
43.68358 55
43.70029 49
43.71700 44
43.73371 34
43.75042 26
43.76713 23
43.78385 25
43.80056 24
43.81727 23
43.83398 23
43.85069 22
43.86740 24
43.88411 24
43.90082 21
43.91754 19
43.93425 19
43.95096 20
43.96767 18
43.98438 14
44.00109 13
44.01780 11
44.03451 12
44.05123 9
44.06794 6
44.08465 8
44.10136 9
44.11807 9
44.13478 10
44.15150 9
44.16820 9
44.18492 7
44.20163 6
44.21834 2
44.23505 0
44.25176 3
44.26847 4
44.28519 3
44.30189 5
44.31861 4
44.33532 5
44.35203 6
44.36874 5
44.38545 3
44.40216 3
44.41888 3
44.43558 4
44.45230 4
44.46901 4
44.48572 3
44.50243 5
44.51914 5
44.53585 5
44.55257 4
44.56927 3
44.58599 2
44.60270 2
44.61941 1
44.63612 1
44.65283 2
44.66954 2
44.68626 2
44.70297 3
44.71968 4
44.73639 5
44.75310 5
44.76981 4
44.78652 4
44.80323 4
44.81995 4
44.83666 2
44.85337 2
44.87008 2
44.88679 1
44.90350 1
44.92021 1
44.93692 0
44.95364 0
44.97035 1
44.98706 3
45.00377 3
45.02048 4
45.03719 3
45.05390 3
45.07061 3
45.08733 2
45.10404 2
45.12075 3
45.13746 5
45.15417 5
45.17088 4
45.18759 3
45.20430 2
45.22102 2
45.23773 1
45.25444 0
45.27115 1
45.28786 2
45.30457 2
45.32128 3
45.33799 2
45.35471 2
45.37142 1
45.38813 1
45.40484 2
45.42155 3
45.43826 3
45.45497 4
45.47168 5
45.4884  5
45.50511 5
45.52182 5
45.53853 3
45.55524 3
45.57195 5
45.58866 5
45.60538 4
45.62208 5
45.63880 7
45.65551 9
45.67222 10
45.68893 12
45.70564 11
45.72235 10
45.73907 10
45.75577 9
45.77249 6
45.78920 4
45.80591 3
45.82262 5
45.83933 5
45.85604 5
45.87276 4
45.88946 5
45.90618 4
45.92289 7
45.93960 7
45.95631 8
45.97302 8
45.98973 8
46.00645 7
46.02315 4
46.03987 4
46.05658 5
46.07329 4
46.09000 9
46.10671 11
46.12342 14
46.14014 15
46.15685 14
46.17356 13
46.19027 11
46.20698 9
46.22369 9
46.24040 7
46.25711 4
46.27383 6
46.29054 7
46.30725 9
46.32396 11
46.34067 13
46.35738 17
46.37409 17
46.39080 18
46.40752 17
46.42423 12
46.44094 11
46.45765 13
46.47436 14
46.49107 14
46.50779 17
46.52449 22
46.54121 24
46.55792 24
46.57463 21
46.59134 15
46.60805 12
46.62476 13
46.64147 11
46.65818 13
46.6749  20
46.69161 27
46.70832 34
46.72503 38
46.74174 42
46.75845 42
46.77516 43
46.79187 44
46.80859 41
46.82530 39
46.84201 41
46.85872 41
46.87543 44
46.89214 50
46.90885 57
46.92556 58
46.94228 69
46.95899 72
46.97570 72
46.99241 72
47.00912 75
47.02583 74
47.04254 77
47.05926 74
47.07597 75
47.09268 76
47.10939 85
47.12610 86
47.14281 89
47.15952 95
47.17623 107
47.19295 116
47.20966 124
47.22637 129
47.24308 138
47.25979 142
47.27650 144
47.29321 139
47.30992 137
47.32664 142
47.34334 146
47.36006 141
47.37677 141
47.39348 139
47.41019 144
47.42690 147
47.44361 144
47.46033 146
47.47704 154
47.49375 160
47.51046 167
47.52717 166
47.54388 164
47.56059 162
47.57730 163
47.59402 165
47.61073 160
47.62744 160
47.64415 161
47.66086 155
47.67757 159
47.69428 152
47.71099 144
47.72771 137
47.74442 137
47.76113 149
47.77784 148
47.79455 147
47.81126 151
47.82797 144
47.84468 140
47.86140 134
47.87811 125
47.89482 113
47.91153 114
47.92824 110
47.94495 103
47.96167 101
47.97837 96
47.99509 95
48.01180 96
48.02851 95
48.04522 93
48.06193 92
48.07864 97
48.09536 93
48.11206 95
48.12878 93
48.14549 91
48.16220 99
48.17891 100
48.19562 101
48.21233 98
48.22905 97
48.24575 99
48.26247 100
48.27918 103
48.29589 105
48.31260 105
48.32931 113
48.34602 125
48.36274 135
48.37944 136
48.39616 143
48.41287 142
48.42958 143
48.44629 149
48.46300 146
48.47971 137
48.49642 135
48.51314 138
48.52985 136
48.54656 135
48.56327 141
48.57998 138
48.59669 141
48.61340 145
48.63011 145
48.64683 142
48.66354 141
48.68025 139
48.69696 135
48.71367 136
48.73038 137
48.74709 136
48.76380 130
48.78052 123
48.79723 125
48.81394 119
48.83065 111
48.84736 105
48.86407 99
48.88078 91
48.89749 83
48.91421 80
48.93092 68
48.94763 65
48.96434 64
48.98105 58
48.99776 56
49.01447 58
49.03118 59
49.04790 57
49.06461 59
49.08132 59
49.09803 52
49.11474 50
49.13145 42
49.14816 38
49.16487 34
49.18159 33
49.19830 29
49.21501 27
49.23172 29
49.24843 29
49.26514 29
49.28185 29
49.29856 26
49.31528 26
49.33199 26
49.34870 23
49.36541 16
49.38212 16
49.39883 15
49.41555 13
49.43225 14
49.44897 14
49.46568 12
49.48239 13
49.49910 13
49.51581 10
49.53252 7
49.54924 9
49.56594 8
49.58266 7
49.59937 8
49.61608 7
49.63279 6
49.64950 9
49.66621 11
49.68293 11
49.69963 12
49.71635 14
49.73306 12
49.74977 10
49.76648 8
49.78319 3
49.79990 1
49.81662 2
49.83333 1
49.85004 3
49.86675 7
49.88346 8
49.90017 10
49.91688 12
49.93359 12
49.95031 11
49.96702 12
49.98373 10
50.00044 8
50.01715 8
50.03386 7
50.05057 6
50.06728 6
50.084   5
50.10071 5
50.11742 4
50.13413 6
50.15084 8
50.16755 11
50.18426 11
50.20097 12
50.21769 12
50.23440 10
50.25111 7
50.26782 6
50.28453 2
50.30124 2
50.31795 3
50.33466 4
50.35137 3
50.36809 4
50.38480 3
50.40151 3
50.41822 5
50.43493 7
50.45164 7
50.46835 7
50.48506 7
50.50178 9
50.51849 9
50.53520 8
50.55191 6
50.56862 5
50.58533 5
50.60204 5
50.61875 5
50.63547 3
50.65218 3
50.66889 4
50.68560 3
50.70231 2
50.71902 1
50.73573 1
50.75244 2
50.76916 2
50.78587 4
50.80258 7
50.81929 9
50.83600 10
50.85271 10
50.86943 11
50.88613 10
50.90285 9
50.91956 6
50.93627 3
50.95298 3
50.96969 2
50.98640 3
51.00312 3
51.01982 3
51.03654 4
51.05325 5
51.06996 6
51.08667 6
51.10338 8
51.12009 7
51.13681 8
51.15351 10
51.17023 10
51.18694 11
51.20365 13
51.22036 13
51.23707 11
51.25378 10
51.2705  8
51.28721 5
51.30392 5
51.32063 5
51.33734 5
51.35405 9
51.37076 12
51.38747 14
51.40419 12
51.42090 14
51.43761 13
51.45432 11
51.47103 9
51.48774 6
51.50445 4
51.52116 4
51.53788 4
51.55459 4
51.57130 4
51.58801 7
51.60472 8
51.62143 9
51.63814 10
51.65485 12
51.67157 13
51.68828 16
51.70499 15
51.72170 14
51.73841 12
51.75512 12
51.77183 11
51.78854 8
51.80526 8
51.82197 7
51.83868 8
51.85539 7
51.87210 6
51.88881 3
51.90552 3
51.92223 7
51.93895 9
51.95566 8
51.97237 9
51.98908 11
52.00579 11
52.02250 11
52.03921 11
52.05592 7
52.07263 7
52.08935 8
52.10606 7
52.12277 4
52.13948 3
52.15619 6
52.17290 7
52.18961 9
52.20632 11
52.22304 10
52.23975 11
52.25646 10
52.27317 9
52.28988 7
52.30659 5
52.32331 5
52.34001 5
52.35673 6
52.37344 7
52.39015 8
52.40686 10
52.42357 12
52.44028 12
52.45700 13
52.47370 11
52.49042 9
52.50713 8
52.52384 4
52.54055 4
52.55726 3
52.57397 3
52.59069 7
52.60739 9
52.62411 11
52.64082 10
52.65753 13
52.67424 12
52.69095 10
52.70766 10
52.72438 8
52.74109 7
52.75780 7
52.77451 6
52.79122 5
52.80793 3
52.82464 5
52.84135 4
52.85807 4
52.87478 5
52.89149 6
52.90820 7
52.92491 7
52.94162 8
52.95833 10
52.97504 8
52.99176 9
53.00847 8
53.02518 7
53.04189 7
53.05860 6
53.07531 5
53.09202 4
53.10873 4
53.12545 5
53.14216 4
53.15887 5
53.17558 5
53.19229 4
53.20900 2
53.22571 4
53.24242 4
53.25914 6
53.27585 6
53.29256 6
53.30927 6
53.32598 7
53.34269 6
53.35940 5
53.37611 3
53.39283 6
53.40954 6
53.42625 7
53.44296 5
53.45967 4
53.47638 6
53.49309 9
53.50980 10
53.52652 10
53.54323 9
53.55994 9
53.57665 8
53.59336 7
53.61007 5
53.62678 5
53.64350 6
53.66021 7
53.67692 7
53.69363 7
53.71034 6
53.72705 7
53.74376 7
53.76047 6
53.77719 6
53.7939  6
53.81061 6
53.82732 5
53.84403 4
53.86074 5
53.87745 5
53.89416 6
53.91088 6
53.92758 6
53.94430 5
53.96101 6
53.97772 7
53.99443 8
54.01114 7
54.02785 8
54.04457 9
54.06127 9
54.07799 10
54.09470 10
54.11141 9
54.12812 8
54.14483 9
54.16154 9
54.17826 8
54.19497 8
54.21168 8
54.22839 9
54.24510 10
54.26181 10
54.27852 11
54.29523 11
54.31195 10
54.32866 11
54.34537 10
54.36208 8
54.37879 8
54.39550 8
54.41221 9
54.42892 10
54.44564 12
54.46235 11
54.47906 10
54.49577 11
54.51248 9
54.52919 8
54.54590 7
54.56261 3
54.57933 3
54.59604 3
54.61275 4
54.62946 3
54.64617 5
54.66288 8
54.6796  9
54.69630 11
54.71302 13
54.72973 12
54.74644 12
54.76315 10
54.77986 10
54.79657 8
54.81329 8
54.82999 9
54.84671 7
54.86342 10
54.88013 10
54.89684 10
54.91355 9
54.93026 8
54.94698 7
54.96368 5
54.9804  5
54.99711 4
55.01382 3
55.03053 5
55.04724 4
55.06395 7
55.08066 7
55.09738 7
55.11409 7
55.13080 7
55.14751 8
55.16422 7
55.18093 5
55.19764 5
55.21435 4
55.23107 5
55.24778 3
55.26449 2
55.28120 1
55.29791 2
55.31462 3
55.33133 3
55.34804 3
55.36476 4
55.38147 7
55.39818 8
55.41489 10
55.43160 9
55.44831 9
55.46502 9
55.48173 7
55.49845 5
55.51516 2
55.53187 1
55.54858 1
55.56529 2
55.58200 2
55.59871 3
55.61542 5
55.63214 6
55.64885 6
55.66556 7
55.68227 7
55.69898 7
55.71569 7
55.73240 6
55.74911 4
55.76583 4
55.78254 3
55.79925 3
55.81596 5
55.83267 8
55.84938 9
55.86609 11
55.88280 11
55.89952 11
55.91623 10
55.93294 7
55.94965 4
55.96636 3
55.98307 4
55.99978 5
56.01649 6
56.03321 7
56.04992 8
56.06663 8
56.08334 9
56.10005 8
56.11676 7
56.13348 4
56.15018 3
56.16690 3
56.18361 3
56.20032 5
56.21703 8
56.23374 12
56.25045 18
56.26717 19
56.28387 20
56.30059 20
56.31730 20
56.33401 19
56.35072 17
56.36743 16
56.38414 17
56.40086 17
56.41756 19
56.43428 18
56.45099 17
56.46770 20
56.48441 21
56.50112 21
56.51783 22
56.53455 21
56.55126 24
56.56797 24
56.58468 29
56.60139 30
56.61810 32
56.63481 34
56.65152 33
56.66824 30
56.68495 30
56.70166 30
56.71837 30
56.73508 29
56.75179 32
56.76850 33
56.78521 35
56.80192 33
56.81864 34
56.83535 32
56.85206 30
56.86877 28
56.88548 25
56.90219 26
56.91890 24
56.93561 25
56.95233 29
56.96904 29
56.98575 35
57.00246 36
57.01917 36
57.03588 38
57.05259 38
57.06930 37
57.08602 36
57.10273 35
57.11944 36
57.13615 32
57.15286 33
57.16957 32
57.18628 34
57.20299 38
57.21971 39
57.23642 40
57.25313 46
57.26984 51
57.28655 54
57.30326 56
57.31997 58
57.33668 54
57.35340 52
57.37011 52
57.38682 51
57.40353 51
57.42024 53
57.43695 53
57.45367 51
57.47037 51
57.48709 55
57.50380 55
57.52051 54
57.53722 56
57.55393 57
57.57064 60
57.58736 61
57.60406 63
57.62078 63
57.63749 63
57.65420 65
57.67091 64
57.68762 60
57.70433 59
57.72105 55
57.73775 54
57.75447 53
57.77118 52
57.78789 50
57.80460 46
57.82131 44
57.83802 42
57.85474 40
57.87144 41
57.88816 38
57.90487 35
57.92158 33
57.93829 32
57.95500 30
57.97171 32
57.98843 35
58.00514 34
58.02185 35
58.03856 37
58.05527 36
58.07198 35
58.08869 31
58.10540 29
58.12212 25
58.13883 23
58.15554 22
58.17225 17
58.18896 16
58.20567 17
58.22238 16
58.23909 17
58.25581 18
58.27252 22
58.28923 23
58.30594 24
58.32265 26
58.33936 27
58.35607 26
58.37278 26
58.3895  22
58.40621 18
58.42292 15
58.43963 14
58.45634 11
58.47305 10
58.48976 9
58.50647 11
58.52319 10
58.53990 13
58.55661 16
58.57332 17
58.59003 18
58.60674 20
58.62345 21
58.64016 22
58.65687 20
58.67359 18
58.69030 14
58.70701 13
58.72372 12
58.74043 9
58.75714 8
58.77385 7
58.79056 7
58.80728 8
58.82399 9
58.84070 8
58.85741 8
58.87412 7
58.89083 8
58.90755 10
58.92425 8
58.94097 7
58.95768 9
58.97439 11
58.99110 12
59.00781 12
59.02452 12
59.04124 12
59.05794 13
59.07466 13
59.09137 10
59.10808 7
59.12479 6
59.14150 7
59.15821 7
59.17493 7
59.19163 6
59.20835 7
59.22506 6
59.24177 7
59.25848 6
59.27519 5
59.29190 4
59.30862 4
59.32532 5
59.34204 4
59.35875 4
59.37546 5
59.39217 6
59.40888 7
59.42559 7
59.44231 7
59.45902 6
59.47573 4
59.49244 4
59.50915 3
59.52586 4
59.54257 4
59.55928 5
59.576   4
59.59271 5
59.60942 7
59.62613 8
59.64284 7
59.65955 8
59.67626 8
59.69297 8
59.70969 7
59.72640 8
59.74311 7
59.75982 10
59.77653 10
59.79324 9
59.80995 7
59.82666 5
59.84338 4
59.86009 2
59.87680 1
59.89351 3
59.91022 2
59.92693 4
59.94364 5
59.96035 5
59.97707 7
59.99378 8
60.01049 9
60.02720 8
60.04391 7
60.06062 7
60.07733 6
60.09404 6
60.11076 7
60.12747 8
60.14418 9
60.16089 10
60.17760 10
60.19431 10
60.21102 10
60.22773 11
60.24445 11
60.26116 11
60.27787 12
60.29458 11
60.31129 10
60.32800 11
60.34471 11
60.36143 13
60.37813 13
60.39485 13
60.41156 14
60.42827 16
60.44498 18
60.46169 21
60.47840 24
60.49512 26
60.51182 27
60.52854 30
60.54525 28
60.56196 30
60.57867 29
60.59538 30
60.61209 28
60.62881 30
60.64551 29
60.66223 28
60.67894 29
60.69565 33
60.71236 37
60.72907 40
60.74578 40
60.76250 41
60.77921 41
60.79592 42
60.81263 39
60.82934 38
60.84605 38
60.86276 42
60.87947 48
60.89619 50
60.91290 51
60.92961 52
60.94632 52
60.96303 50
60.97974 46
60.99645 48
61.01316 47
61.02988 48
61.04659 48
61.06330 45
61.08001 44
61.09672 42
61.11343 39
61.13014 37
61.14685 39
61.16357 44
61.18028 42
61.19699 43
61.21370 42
61.23041 40
61.24712 41
61.26384 43
61.28054 45
61.29726 45
61.31397 44
61.33068 42
61.34739 39
61.36410 33
61.38081 28
61.39753 25
61.41423 24
61.43095 26
61.44766 27
61.46437 25
61.48108 25
61.49779 27
61.51450 26
61.53121 23
61.54792 24
61.56464 26
61.58135 26
61.59806 26
61.61477 27
61.63148 29
61.64819 31
61.66490 31
61.68161 29
61.69833 27
61.71504 26
61.73175 24
61.74846 20
61.76517 18
61.78188 16
61.79859 15
61.81531 14
61.83202 11
61.84873 11
61.86544 12
61.88215 13
61.89886 13
61.91557 13
61.93228 14
61.94900 14
61.96571 16
61.98242 17
61.99913 17
62.01584 17
62.03255 15
62.04926 13
62.06597 8
62.08269 5
62.0994  3
62.11611 1
62.13282 2
62.14953 3
62.16624 5
62.18295 6
62.19966 6
62.21638 6
62.23309 7
62.24980 9
62.26651 8
62.28322 9
62.29993 9
62.31664 10
62.33335 11
62.35007 10
62.36678 9
62.38349 9
62.40020 9
62.41691 9
62.43362 7
62.45033 7
62.46704 6
62.48376 4
62.50047 4
62.51718 3
62.53389 5
62.55060 6
62.56731 7
62.58402 8
62.60073 9
62.61745 8
62.63416 9
62.65087 7
62.66758 6
62.68429 5
62.70100 5
62.71772 4
62.73442 4
62.75114 4
62.76785 3
62.78456 2
62.80127 4
62.81798 5
62.83469 5
62.85141 5
62.86811 6
62.88483 5
62.90154 6
62.91825 8
62.93496 9
62.95167 11
62.96838 14
62.9851  15
63.00180 14
63.01852 13
63.03523 12
63.05194 10
63.06865 10
63.08536 9
63.10207 10
63.11879 11
63.13549 10
63.15221 8
63.16892 7
63.18563 6
63.20234 7
63.21905 8
63.23576 9
63.25248 9
63.26919 10
63.2859  12
63.30261 11
63.31932 11
63.33603 10
63.35274 9
63.36945 10
63.38616 9
63.40288 8
63.41959 8
63.43630 7
63.45301 7
63.46972 8
63.48643 7
63.50314 6
63.51985 9
63.53657 9
63.55328 9
63.56999 11
63.58670 9
63.60341 8
63.62012 10
63.63683 11
63.65354 9
63.67026 8
63.68697 9
63.70368 8
63.72039 8
63.73710 8
63.75381 5
63.77052 6
63.78723 6
63.80395 5
63.82066 6
63.83737 6
63.85408 6
63.87079 6
63.88750 7
63.90421 7
63.92092 8
63.93764 8
63.95435 8
63.97106 8
63.98777 9
64.00448 8
64.02119 5
64.03791 5
64.05461 5
64.07132 5
64.08804 6
64.10475 5
64.12146 4
64.13817 6
64.15488 7
64.1716  8
64.18830 9
64.20502 8
64.22173 12
64.23844 14
64.25515 14
64.27186 15
64.28857 15
64.30529 16
64.32199 16
64.33871 15
64.35542 12
64.37213 10
64.38884 12
64.40555 11
64.42226 11
64.43898 13
64.45568 17
64.47240 19
64.48911 23
64.50582 24
64.52253 25
64.53924 27
64.55595 29
64.57267 29
64.58937 28
64.60609 27
64.62280 29
64.63951 31
64.65622 33
64.67293 33
64.68965 36
64.70636 37
64.72306 39
64.73978 39
64.75649 36
64.77320 35
64.78991 35
64.80662 34
64.82334 34
64.84005 35
64.85675 36
64.87347 37
64.89018 38
64.90689 37
64.92360 36
64.94031 38
64.95703 34
64.97374 32
64.99044 33
65.00716 31
65.02387 33
65.04058 37
65.05729 34
65.07400 33
65.09072 33
65.10743 33
65.12413 28
65.14085 28
65.15756 28
65.17427 29
65.19098 36
65.20769 40
65.22441 37
65.24111 38
65.25782 38
65.27454 36
65.29125 31
65.30796 31
65.32467 29
65.34138 28
65.35810 26
65.37480 23
65.39151 21
65.40823 23
65.42494 23
65.44165 25
65.45836 24
65.47507 28
65.49179 29
65.50849 29
65.52521 28
65.54192 29
65.55863 30
65.57534 32
65.59205 29
65.60876 30
65.62548 28
65.64218 31
65.65890 28
65.67561 28
65.69232 29
65.70903 29
65.72574 30
65.74245 31
65.75917 30
65.77587 32
65.79259 32
65.80930 31
65.82601 28
65.84272 29
65.85943 29
65.87614 27
65.89286 31
65.90956 30
65.92628 29
65.94299 28
65.95970 23
65.97641 20
65.99312 19
66.00984 19
66.02655 17
66.04325 16
66.05997 19
66.07668 17
66.09339 18
66.11010 20
66.12681 18
66.14353 20
66.16024 21
66.17694 22
66.19366 21
66.21037 22
66.22708 20
66.24379 20
66.26050 22
66.27722 21
66.29393 17
66.31063 16
66.32735 12
66.34406 11
66.36077 9
66.37748 10
66.39419 9
66.41091 11
66.42762 11
66.44432 10
66.46104 9
66.47775 10
66.49446 8
66.51117 8
66.52788 8
66.54460 9
66.56131 9
66.57801 8
66.59473 8
66.61144 8
66.62815 8
66.64486 8
66.66157 5
66.67829 4
66.695   4
66.71170 4
66.72842 5
66.74513 5
66.76184 7
66.77855 7
66.79526 6
66.81198 4
66.82869 3
66.84539 4
66.86211 5
66.87882 6
66.89553 6
66.91224 7
66.92895 9
66.94567 8
66.96237 8
66.97909 7
66.99580 9
67.01251 8
67.02922 8
67.04593 7
67.06264 7
67.07936 8
67.09606 7
67.11278 5
67.12949 4
67.14620 4
67.16291 3
67.17962 0
67.19633 0
67.21305 1
67.22975 2
67.24647 3
67.26318 5
67.27989 6
67.29660 7
67.31331 7
67.33002 8
67.34674 7
67.36344 6
67.38016 5
67.39687 5
67.41358 5
67.43029 4
67.44700 4
67.46372 4
67.48043 5
67.49713 6
67.51385 5
67.53056 4
67.54727 4
67.56398 3
67.58069 2
67.59741 2
67.61412 2
67.63082 3
67.64754 4
67.66425 3
67.68096 4
67.69767 5
67.71438 6
67.73110 6
67.74781 7
67.76451 6
67.78123 5
67.79794 4
67.81465 3
67.83136 0
67.84807 2
67.86479 3
67.8815  2
67.89820 3
67.91492 3
67.93163 4
67.94834 4
67.96505 5
67.98176 5
67.99848 5
68.01519 6
68.03189 5
68.04861 5
68.06532 4
68.08203 3
68.09874 3
68.11545 3
68.13217 2
68.14888 3
68.16558 4
68.18230 5
68.19901 5
68.21572 4
68.23243 4
68.24914 5
68.26586 5
68.28257 5
68.29927 4
68.31599 5
68.33270 5
68.34941 4
68.36612 3
68.38283 3
68.39955 3
68.41626 4
68.43297 5
68.44968 4
68.46639 4
68.48310 6
68.49981 7
68.51652 8
68.53324 9
68.54995 8
68.56666 8
68.58337 8
68.60008 7
68.61679 5
68.63350 5
68.65021 6
68.66693 5
68.68364 5
68.70035 5
68.71706 3
68.73377 4
68.75048 4
68.76719 5
68.78390 4
68.80062 4
68.81732 3
68.83404 3
68.85075 4
68.86746 4
68.88417 4
68.90088 6
68.91760 6
68.93431 5
68.95101 5
68.96773 5
68.98444 7
69.00115 9
69.01786 10
69.03457 10
69.05129 10
69.06800 8
69.08470 7
69.10142 7
69.11813 6
69.13484 6
69.15155 7
69.16826 6
69.18498 6
69.20169 6
69.21839 6
69.23511 5
69.25182 7
69.26853 10
69.28524 9
69.30195 10
69.31867 11
69.33538 11
69.35208 12
69.36880 13
69.38551 13
69.40222 13
69.41893 12
69.43564 11
69.45236 8
69.46907 8
69.48577 10
69.50249 11
69.51920 11
69.53591 12
69.55262 10
69.56933 11
69.58605 9
69.60276 7
69.61946 7
69.63618 10
69.65289 13
69.66960 14
69.68631 14
69.70302 13
69.71974 11
69.73645 9
69.75315 6
69.76987 6
69.78658 7
69.80329 8
69.82000 8
69.83671 8
69.85343 8
69.87014 9
69.88685 9
69.90356 9
69.92027 9
69.93698 8
69.95369 7
69.97040 6
69.98712 6
70.00383 6
